Timestamp,ECG Voltage (mV)
15:32:04.200,-0.013459073
15:32:04.204,-0.027009705
15:32:04.208,-0.040560337
15:32:04.212,-0.05347006
15:32:04.216,-0.063633034
15:32:04.220,-0.067844717
15:32:04.224,-0.064182384
15:32:04.228,-0.054934994
15:32:04.232,-0.043856437
15:32:04.236,-0.034517488
15:32:04.240,-0.028291522
15:32:04.244,-0.024629189
15:32:04.248,-0.022523347
15:32:04.252,-0.021790881
15:32:04.256,-0.020417506
15:32:04.260,-0.012635049
15:32:04.264,0.004669474
15:32:04.268,0.026277239
15:32:04.272,0.043215528
15:32:04.276,0.052554477
15:32:04.280,0.05676616
15:32:04.284,0.058780443
15:32:04.288,0.06006226
15:32:04.292,0.062076543
15:32:04.296,0.065464201
15:32:04.300,0.067112251
15:32:04.304,0.061344076
15:32:04.308,0.045687603
15:32:04.312,0.02618568
15:32:04.316,0.011170115
15:32:04.320,0.001190258
15:32:04.324,-0.009430507
15:32:04.328,-0.022614906
15:32:04.332,-0.035616188
15:32:04.336,-0.049716169
15:32:04.340,-0.068943417
15:32:04.344,-0.092840139
15:32:04.348,-0.117469328
15:32:04.352,-0.137154367
15:32:04.356,-0.147592016
15:32:04.360,-0.148232924
15:32:04.364,-0.142556308
15:32:04.368,-0.135231643
15:32:04.372,-0.129829702
15:32:04.376,-0.127449185
15:32:04.380,-0.127632302
15:32:04.384,-0.132210218
15:32:04.388,-0.142739425
15:32:04.392,-0.153268632
15:32:04.396,-0.152536166
15:32:04.400,-0.137154367
15:32:04.404,-0.113715437
15:32:04.408,-0.092382348
15:32:04.412,-0.080662882
15:32:04.416,-0.080388207
15:32:04.420,-0.086888848
15:32:04.424,-0.093847281
15:32:04.428,-0.100164805
15:32:04.432,-0.109412196
15:32:04.436,-0.123145944
15:32:04.440,-0.137612159
15:32:04.444,-0.148324483
15:32:04.448,-0.152993957
15:32:04.452,-0.154367332
15:32:04.456,-0.15885369
15:32:04.460,-0.17139718
15:32:04.464,-0.18888482
15:32:04.468,-0.20362571
15:32:04.472,-0.213697125
15:32:04.476,-0.223493866
15:32:04.480,-0.234938656
15:32:04.484,-0.24565098
15:32:04.488,-0.25434902
15:32:04.492,-0.258926936
15:32:04.496,-0.255813953
15:32:04.500,-0.245284746
15:32:04.504,-0.231276323
15:32:04.508,-0.21452115
15:32:04.512,-0.196941952
15:32:04.516,-0.184123787
15:32:04.520,-0.175517305
15:32:04.524,-0.165445889
15:32:04.528,-0.153543307
15:32:04.532,-0.144021242
15:32:04.536,-0.136147226
15:32:04.540,-0.122230361
15:32:04.544,-0.095403772
15:32:04.548,-0.057132393
15:32:04.552,-0.020600623
15:32:04.556,0.001281817
15:32:04.560,0.011536349
15:32:04.564,0.022706464
15:32:04.568,0.03872917
15:32:04.572,0.053103827
15:32:04.576,0.062076543
15:32:04.580,0.067936275
15:32:04.584,0.0742538
15:32:04.588,0.083318074
15:32:04.592,0.096777147
15:32:04.596,0.1150888115729719
15:32:04.600,0.1337667093938839
15:32:04.604,0.1455777330159311
15:32:04.608,0.1488738326313862
15:32:04.612,0.1479582494048709
15:32:04.616,0.1471342245010071
15:32:04.620,0.148324483
15:32:04.624,0.1525361655374473
15:32:04.628,0.1584874565097967
15:32:04.632,0.1636147225782823
15:32:04.636,0.1679179637429042
15:32:04.640,0.1737776963926021
15:32:04.644,0.1826588536898004
15:32:04.648,0.1929133858267716
15:32:04.652,0.2016114264786669
15:32:04.656,0.2072880424830617
15:32:04.660,0.2093938839040468
15:32:04.664,0.2067386925471525
15:32:04.668,0.1993224684123787
15:32:04.672,0.1899835195019227
15:32:04.676,0.1835744369163157
15:32:04.680,0.1819263871085881
15:32:04.684,0.1838491118842702
15:32:04.688,0.1872367698223768
15:32:04.692,0.1899835195019227
15:32:04.696,0.1918146859549533
15:32:04.700,0.1936458524079838
15:32:04.704,0.1947445522798022
15:32:04.708,0.1941036440212415
15:32:04.712,0.1934627357626808
15:32:04.716,0.1949276689251053
15:32:04.720,0.1979490935726057
15:32:04.724,0.1998718183482878
15:32:04.728,0.1998718183482878
15:32:04.732,0.1992309100897271
15:32:04.736,0.1995971433803332
15:32:04.740,0.2029848013184398
15:32:04.744,0.2108588170664713
15:32:04.748,0.2209302325581395
15:32:04.752,0.2282548983702618
15:32:04.756,0.2301776231459439
15:32:04.760,0.2277971067570042
15:32:04.764,0.2244094488188976
15:32:04.768,0.222578282
15:32:04.772,0.2224867240432155
15:32:04.776,0.2206555575901849
15:32:04.780,0.2127815418421534
15:32:04.784,0.1992309100897271
15:32:04.788,0.1847646951107855
15:32:04.792,0.1721296465848745
15:32:04.796,0.1570225233473722
15:32:04.800,0.134132943
15:32:04.804,0.1041018128547885
15:32:04.808,0.075169383
15:32:04.812,0.056491485
15:32:04.816,0.050540194
15:32:04.820,0.055301227
15:32:04.824,0.066288226
15:32:04.828,0.072331075
15:32:04.832,0.061344076
15:32:04.836,0.031404505
15:32:04.840,-0.002655191
15:32:04.844,-0.015198682
15:32:04.848,0.011078557
15:32:04.852,0.075993408
15:32:04.856,0.1672770554843435
15:32:04.860,0.2608496612342061
15:32:04.864,0.3273210034792163
15:32:04.868,0.3444424098150522
15:32:04.872,0.2971067570042117
15:32:04.876,0.1856802783373008
15:32:04.880,0.044588903
15:32:04.884,-0.078648599
15:32:04.888,-0.169108222
15:32:04.892,-0.230635415
15:32:04.896,-0.257553562
15:32:04.900,-0.255081487
15:32:04.904,-0.238417872
15:32:04.908,-0.206006226
15:32:04.912,-0.157388757
15:32:04.916,-0.111975829
15:32:04.920,-0.087621315
15:32:04.924,-0.082585607
15:32:04.928,-0.085332357
15:32:04.932,-0.08844534
15:32:04.936,-0.089452481
15:32:04.940,-0.085973265
15:32:04.944,-0.076725874
15:32:04.948,-0.065830434
15:32:04.952,-0.060977843
15:32:04.956,-0.063358359
15:32:04.960,-0.0676616
15:32:04.964,-0.069767442
15:32:04.968,-0.069950559
15:32:04.972,-0.069675884
15:32:04.976,-0.06930965
15:32:04.980,-0.068668742
15:32:04.984,-0.067936275
15:32:04.988,-0.068027834
15:32:04.992,-0.070133675
15:32:04.996,-0.072788867
15:32:05.000,-0.071598608
15:32:05.004,-0.061344076
15:32:05.008,-0.042391503
15:32:05.012,-0.023072697
15:32:05.016,-0.010712324
15:32:05.020,-0.003479216
15:32:05.024,0.005768174
15:32:05.028,0.018128548
15:32:05.032,0.027101264
15:32:05.036,0.02728438
15:32:05.040,0.019776598
15:32:05.044,0.012085699
15:32:05.048,0.011536349
15:32:05.052,0.017396081
15:32:05.056,0.023805164
15:32:05.060,0.028749313
15:32:05.064,0.034334371
15:32:05.068,0.044588903
15:32:05.072,0.061984984
15:32:05.076,0.082219374
15:32:05.080,0.09879143
15:32:05.084,0.1101446621497894
15:32:05.088,0.1205823109320637
15:32:05.092,0.1357809924922175
15:32:05.096,0.156290057
15:32:05.100,0.1752426295550265
15:32:05.104,0.1860465116279069
15:32:05.108,0.1898004028566196
15:32:05.112,0.1927302691814686
15:32:05.116,0.1965757187328328
15:32:05.120,0.1972166269913935
15:32:05.124,0.1899835195019227
15:32:05.128,0.1755173045229811
15:32:05.132,0.1590368064457059
15:32:05.136,0.1452115
15:32:05.140,0.1337667093938839
15:32:05.144,0.1179271195751693
15:32:05.148,0.092107673
15:32:05.152,0.05951291
15:32:05.156,0.027467497
15:32:05.160,0.000366233
15:32:05.164,-0.019593481
15:32:05.168,-0.03167918
15:32:05.172,-0.037081121
15:32:05.176,-0.038088262
15:32:05.180,-0.036623329
15:32:05.184,-0.035890862
15:32:05.188,-0.040560337
15:32:05.192,-0.05347006
15:32:05.196,-0.07260575
15:32:05.200,-0.091649881
15:32:05.204,-0.103918696
15:32:05.208,-0.108038821
15:32:05.212,-0.107947262
15:32:05.216,-0.108038821
15:32:05.220,-0.109229079
15:32:05.224,-0.110694012
15:32:05.228,-0.112067387
15:32:05.232,-0.113166087
15:32:05.236,-0.113349203
15:32:05.240,-0.112067387
15:32:05.244,-0.108588171
15:32:05.248,-0.102911555
15:32:05.252,-0.096960264
15:32:05.256,-0.092931697
15:32:05.260,-0.091558323
15:32:05.264,-0.091832998
15:32:05.268,-0.091741439
15:32:05.272,-0.089086248
15:32:05.276,-0.082677165
15:32:05.280,-0.074345358
15:32:05.284,-0.068394067
15:32:05.288,-0.066837576
15:32:05.292,-0.067570042
15:32:05.296,-0.067295367
15:32:05.300,-0.063449918
15:32:05.304,-0.055392785
15:32:05.308,-0.044588903
15:32:05.312,-0.033510346
15:32:05.316,-0.024171397
15:32:05.320,-0.015564915
15:32:05.324,-0.004486358
15:32:05.328,0.009796741
15:32:05.332,0.023713606
15:32:05.336,0.034334371
15:32:05.340,0.041109687
15:32:05.344,0.044863578
15:32:05.348,0.046236953
15:32:05.352,0.047610328
15:32:05.356,0.051089544
15:32:05.360,0.053836294
15:32:05.364,0.051364219
15:32:05.368,0.047244094
15:32:05.372,0.047976561
15:32:05.376,0.051730452
15:32:05.380,0.052554477
15:32:05.384,0.050173961
15:32:05.388,0.047885003
15:32:05.392,0.04696942
15:32:05.396,0.045138253
15:32:05.400,0.040010987
15:32:05.404,0.033235671
15:32:05.408,0.028657755
15:32:05.412,0.027467497
15:32:05.416,0.028108405
15:32:05.420,0.027192822
15:32:05.424,0.021607764
15:32:05.428,0.012360374
15:32:05.432,0.001190258
15:32:05.436,-0.012177257
15:32:05.440,-0.023896722
15:32:05.444,-0.028657755
15:32:05.448,-0.026551914
15:32:05.452,-0.020966856
15:32:05.456,-0.016480498
15:32:05.460,-0.018403223
15:32:05.464,-0.02893243
15:32:05.468,-0.04312397
15:32:05.472,-0.05292071
15:32:05.476,-0.055942135
15:32:05.480,-0.055301227
15:32:05.484,-0.054477202
15:32:05.488,-0.054660319
15:32:05.492,-0.055575902
15:32:05.496,-0.05676616
15:32:05.500,-0.05731551
15:32:05.504,-0.055759018
15:32:05.508,-0.053103827
15:32:05.512,-0.050997986
15:32:05.516,-0.049716169
15:32:05.520,-0.048709028
15:32:05.524,-0.047793444
15:32:05.528,-0.046328511
15:32:05.532,-0.044955136
15:32:05.536,-0.044405786
15:32:05.540,-0.044588903
15:32:05.544,-0.044588903
15:32:05.548,-0.042299945
15:32:05.552,-0.035890862
15:32:05.556,-0.02618568
15:32:05.560,-0.014649332
15:32:05.564,-0.001464933
15:32:05.568,0.01254349
15:32:05.572,0.023438931
15:32:05.576,0.028657755
15:32:05.580,0.03003113
15:32:05.584,0.030488921
15:32:05.588,0.030763596
15:32:05.592,0.030488921
15:32:05.596,0.029298663
15:32:05.600,0.025544772
15:32:05.604,0.016572056
15:32:05.608,0.003021425
15:32:05.612,-0.010529207
15:32:05.616,-0.020142831
15:32:05.620,-0.023713606
15:32:05.624,-0.020875298
15:32:05.628,-0.01583959
15:32:05.632,-0.018403223
15:32:05.636,-0.035707746
15:32:05.640,-0.059055118
15:32:05.644,-0.063724593
15:32:05.648,-0.025453214
15:32:05.652,0.058322652
15:32:05.656,0.1659036806445706
15:32:05.660,0.2647866691082219
15:32:05.664,0.3279619117377769
15:32:05.668,0.3462735762680827
15:32:05.672,0.3159677714704266
15:32:05.676,0.2280717817249588
15:32:05.680,0.094396631
15:32:05.684,-0.047427211
15:32:05.688,-0.166361472
15:32:05.692,-0.247390588
15:32:05.696,-0.279893792
15:32:05.700,-0.268082769
15:32:05.704,-0.233107489
15:32:05.708,-0.187603003
15:32:05.712,-0.136879692
15:32:05.716,-0.097601172
15:32:05.720,-0.080754441
15:32:05.724,-0.078557041
15:32:05.728,-0.078648599
15:32:05.732,-0.076451199
15:32:05.736,-0.073246658
15:32:05.740,-0.07150705
15:32:05.744,-0.070866142
15:32:05.748,-0.068302509
15:32:05.752,-0.062625893
15:32:05.756,-0.057407068
15:32:05.760,-0.056674602
15:32:05.764,-0.059421351
15:32:05.768,-0.061618751
15:32:05.772,-0.060703168
15:32:05.776,-0.056033693
15:32:05.780,-0.049258378
15:32:05.784,-0.04312397
15:32:05.788,-0.039095404
15:32:05.792,-0.037630471
15:32:05.796,-0.037996704
15:32:05.800,-0.037081121
15:32:05.804,-0.033693463
15:32:05.808,-0.027467497
15:32:05.812,-0.018311665
15:32:05.816,-0.009796741
15:32:05.820,-0.005768174
15:32:05.824,-0.004577916
15:32:05.828,-0.002929866
15:32:05.832,0.001556491
15:32:05.836,0.008881157
15:32:05.840,0.016205823
15:32:05.844,0.021333089
15:32:05.848,0.02508698
15:32:05.852,0.029664897
15:32:05.856,0.037355796
15:32:05.860,0.048068119
15:32:05.864,0.058139535
15:32:05.868,0.065097967
15:32:05.872,0.070225233
15:32:05.876,0.075901849
15:32:05.880,0.08405054
15:32:05.884,0.096227797
15:32:05.888,0.1113349203442592
15:32:05.892,0.1285478850027467
15:32:05.896,0.1497894158579014
15:32:05.900,0.1743270463285112
15:32:05.904,0.1941036440212415
15:32:05.908,0.203717268
15:32:05.912,0.2058231093206372
15:32:05.916,0.2059146676432887
15:32:05.920,0.2062809009338949
15:32:05.924,0.2058231093206372
15:32:05.928,0.2022523347372276
15:32:05.932,0.1948361106024537
15:32:05.936,0.1850393700787401
15:32:05.940,0.1737776963926021
15:32:05.944,0.1583958981871452
15:32:05.948,0.1362387841054751
15:32:05.952,0.1089544039553195
15:32:05.956,0.080571324
15:32:05.960,0.055209669
15:32:05.964,0.034883721
15:32:05.968,0.020600623
15:32:05.972,0.013184398
15:32:05.976,0.009430507
15:32:05.980,0.002838308
15:32:05.984,-0.01034609
15:32:05.988,-0.025819447
15:32:05.992,-0.036257096
15:32:05.996,-0.039370079
15:32:06.000,-0.038637612
15:32:06.004,-0.038637612
15:32:06.008,-0.041659037
15:32:06.012,-0.047427211
15:32:06.016,-0.054294085
15:32:06.020,-0.061069401
15:32:06.024,-0.067112251
15:32:06.028,-0.071232375
15:32:06.032,-0.073246658
15:32:06.036,-0.073887566
15:32:06.040,-0.0742538
15:32:06.044,-0.075535616
15:32:06.048,-0.077458341
15:32:06.052,-0.078465483
15:32:06.056,-0.076908991
15:32:06.060,-0.072422633
15:32:06.064,-0.067112251
15:32:06.068,-0.062259659
15:32:06.072,-0.05786486
15:32:06.076,-0.05621681
15:32:06.080,-0.06006226
15:32:06.084,-0.06821095
15:32:06.088,-0.076542758
15:32:06.092,-0.081120674
15:32:06.096,-0.082219374
15:32:06.100,-0.082310932
15:32:06.104,-0.082768724
15:32:06.108,-0.083592749
15:32:06.112,-0.085057682
15:32:06.116,-0.087529756
15:32:06.120,-0.089177806
15:32:06.124,-0.08514924
15:32:06.128,-0.070774583
15:32:06.132,-0.049533053
15:32:06.136,-0.031953855
15:32:06.140,-0.023805164
15:32:06.144,-0.023713606
15:32:06.148,-0.027925288
15:32:06.152,-0.032960996
15:32:06.156,-0.036898004
15:32:06.160,-0.04037722
15:32:06.164,-0.043947995
15:32:06.168,-0.047152536
15:32:06.172,-0.049533053
15:32:06.176,-0.051089544
15:32:06.180,-0.051913569
15:32:06.184,-0.053012269
15:32:06.188,-0.056674602
15:32:06.192,-0.063449918
15:32:06.196,-0.069034975
15:32:06.200,-0.0676616
15:32:06.204,-0.060520051
15:32:06.208,-0.054202527
15:32:06.212,-0.051272661
15:32:06.216,-0.047976561
15:32:06.220,-0.04092657
15:32:06.224,-0.03222853
15:32:06.228,-0.024354514
15:32:06.232,-0.018220106
15:32:06.236,-0.017029848
15:32:06.240,-0.021790881
15:32:06.244,-0.028108405
15:32:06.248,-0.032320088
15:32:06.252,-0.034059696
15:32:06.256,-0.034334371
15:32:06.260,-0.034517488
15:32:06.264,-0.036165537
15:32:06.268,-0.039553195
15:32:06.272,-0.042940853
15:32:06.276,-0.042116828
15:32:06.280,-0.035249954
15:32:06.284,-0.02618568
15:32:06.288,-0.017304523
15:32:06.292,-0.007324666
15:32:06.296,0.002655191
15:32:06.300,0.009613624
15:32:06.304,0.013275957
15:32:06.308,0.016755173
15:32:06.312,0.022157114
15:32:06.316,0.026551914
15:32:06.320,0.021424648
15:32:06.324,0.001190258
15:32:06.328,-0.027009705
15:32:06.332,-0.046786303
15:32:06.336,-0.048892144
15:32:06.340,-0.037996704
15:32:06.344,-0.024903864
15:32:06.348,-0.013825307
15:32:06.352,-0.002563633
15:32:06.356,0.006958433
15:32:06.360,0.010529207
15:32:06.364,0.008881157
15:32:06.368,0.005951291
15:32:06.372,0.004303241
15:32:06.376,0.003570775
15:32:06.380,0.000457792
15:32:06.384,-0.006317524
15:32:06.388,-0.011719465
15:32:06.392,-0.008881157
15:32:06.396,0.000183117
15:32:06.400,0.007233107
15:32:06.404,0.009796741
15:32:06.408,0.011811024
15:32:06.412,0.015931148
15:32:06.416,0.020417506
15:32:06.420,0.022431789
15:32:06.424,0.022248672
15:32:06.428,0.021790881
15:32:06.432,0.021516206
15:32:06.436,0.019593481
15:32:06.440,0.012360374
15:32:06.444,-0.00274675
15:32:06.448,-0.021241531
15:32:06.452,-0.034242813
15:32:06.456,-0.037905146
15:32:06.460,-0.035707746
15:32:06.464,-0.03222853
15:32:06.468,-0.030763596
15:32:06.472,-0.035158396
15:32:06.476,-0.047244094
15:32:06.480,-0.062992126
15:32:06.484,-0.073338216
15:32:06.488,-0.061984984
15:32:06.492,-0.012177257
15:32:06.496,0.07260575
15:32:06.500,0.1725874381981322
15:32:06.504,0.2619483611060245
15:32:06.508,0.3177989379234572
15:32:06.512,0.3272294451565647
15:32:06.516,0.2814502838308002
15:32:06.520,0.1828419703351034
15:32:06.524,0.053836294
15:32:06.528,-0.076725874
15:32:06.532,-0.182017945
15:32:06.536,-0.239699689
15:32:06.540,-0.243362022
15:32:06.544,-0.213697125
15:32:06.548,-0.177806263
15:32:06.552,-0.138344626
15:32:06.556,-0.095861564
15:32:06.560,-0.063449918
15:32:06.564,-0.044863578
15:32:06.568,-0.034700604
15:32:06.572,-0.030214246
15:32:06.576,-0.028749313
15:32:06.580,-0.026460355
15:32:06.584,-0.019318806
15:32:06.588,-0.005127266
15:32:06.592,0.011811024
15:32:06.596,0.022523347
15:32:06.600,0.022798022
15:32:06.604,0.016572056
15:32:06.608,0.009705182
15:32:06.612,0.005676616
15:32:06.616,0.005401941
15:32:06.620,0.007690899
15:32:06.624,0.011811024
15:32:06.628,0.017853873
15:32:06.632,0.025361655
15:32:06.636,0.03112983
15:32:06.640,0.033144113
15:32:06.644,0.032503205
15:32:06.648,0.030855155
15:32:06.652,0.03003113
15:32:06.656,0.03277788
15:32:06.660,0.041292804
15:32:06.664,0.053012269
15:32:06.668,0.061527193
15:32:06.672,0.063541476
15:32:06.676,0.06061161
15:32:06.680,0.056583043
15:32:06.684,0.053836294
15:32:06.688,0.052829152
15:32:06.692,0.052462919
15:32:06.696,0.051913569
15:32:06.700,0.051089544
15:32:06.704,0.050357077
15:32:06.708,0.050540194
15:32:06.712,0.052829152
15:32:06.716,0.056857718
15:32:06.720,0.060520051
15:32:06.724,0.062168101
15:32:06.728,0.062259659
15:32:06.732,0.063999268
15:32:06.736,0.073887566
15:32:06.740,0.096777147
15:32:06.744,0.1269913935176707
15:32:06.748,0.1519868156015381
15:32:06.752,0.1649880974180553
15:32:06.756,0.1691997802600256
15:32:06.760,0.1702069218091924
15:32:06.764,0.1705731550997985
15:32:06.768,0.1693828969053287
15:32:06.772,0.1631569309650247
15:32:06.776,0.1493316242446438
15:32:06.780,0.1322102179088079
15:32:06.784,0.1200329609961545
15:32:06.788,0.1125251785387291
15:32:06.792,0.1001648049807727
15:32:06.796,0.076634316
15:32:06.800,0.045138253
15:32:06.804,0.012451932
15:32:06.808,-0.016663615
15:32:06.812,-0.037630471
15:32:06.816,-0.046603186
15:32:06.820,-0.04587072
15:32:06.824,-0.043215528
15:32:06.828,-0.043856437
15:32:06.832,-0.046053836
15:32:06.836,-0.045779161
15:32:06.840,-0.042940853
15:32:06.844,-0.041018129
15:32:06.848,-0.042483062
15:32:06.852,-0.045138253
15:32:06.856,-0.044955136
15:32:06.860,-0.040468779
15:32:06.864,-0.034151254
15:32:06.868,-0.030305805
15:32:06.872,-0.029207105
15:32:06.876,-0.026002564
15:32:06.880,-0.016022706
15:32:06.884,-0.000732467
15:32:06.888,0.014099982
15:32:06.892,0.022798022
15:32:06.896,0.020783739
15:32:06.900,0.010437649
15:32:06.904,0.000366233
15:32:06.908,-0.005218824
15:32:06.912,-0.008881157
15:32:06.916,-0.011261674
15:32:06.920,-0.010162974
15:32:06.924,-0.005585058
15:32:06.928,-0.000366233
15:32:06.932,0.003021425
15:32:06.936,0.005218824
15:32:06.940,0.007782457
15:32:06.944,0.010437649
15:32:06.948,0.01199414
15:32:06.952,0.012635049
15:32:06.956,0.015381798
15:32:06.960,0.023255814
15:32:06.964,0.034242813
15:32:06.968,0.04257462
15:32:06.972,0.044588903
15:32:06.976,0.040285662
15:32:06.980,0.02893243
15:32:06.984,0.007141549
15:32:06.988,-0.021424648
15:32:06.992,-0.042757737
15:32:06.996,-0.04422267
15:32:07.000,-0.025544772
15:32:07.004,0.000915583
15:32:07.008,0.019593481
15:32:07.012,0.024903864
15:32:07.016,0.022523347
15:32:07.020,0.019776598
15:32:07.024,0.018952573
15:32:07.028,0.017853873
15:32:07.032,0.011811024
15:32:07.036,-0.002838308
15:32:07.040,-0.023438931
15:32:07.044,-0.041109687
15:32:07.048,-0.050906427
15:32:07.052,-0.053927852
15:32:07.056,-0.053012269
15:32:07.060,-0.050540194
15:32:07.064,-0.048159678
15:32:07.068,-0.046328511
15:32:07.072,-0.044588903
15:32:07.076,-0.042849295
15:32:07.080,-0.041567478
15:32:07.084,-0.040010987
15:32:07.088,-0.038362937
15:32:07.092,-0.037996704
15:32:07.096,-0.03982787
15:32:07.100,-0.042666178
15:32:07.104,-0.044131112
15:32:07.108,-0.043764878
15:32:07.112,-0.043215528
15:32:07.116,-0.043398645
15:32:07.120,-0.042116828
15:32:07.124,-0.036898004
15:32:07.128,-0.028291522
15:32:07.132,-0.019135689
15:32:07.136,-0.012909723
15:32:07.140,-0.009705182
15:32:07.144,-0.007690899
15:32:07.148,-0.006409083
15:32:07.152,-0.008606482
15:32:07.156,-0.015564915
15:32:07.160,-0.024262956
15:32:07.164,-0.032686321
15:32:07.168,-0.042299945
15:32:07.172,-0.050631752
15:32:07.176,-0.051822011
15:32:07.180,-0.044863578
15:32:07.184,-0.034334371
15:32:07.188,-0.025544772
15:32:07.192,-0.019227248
15:32:07.196,-0.01309284
15:32:07.200,-0.006042849
15:32:07.204,0.000183117
15:32:07.208,0.003937008
15:32:07.212,0.004211683
15:32:07.216,0.001464933
15:32:07.220,-0.003479216
15:32:07.224,-0.01034609
15:32:07.228,-0.016205823
15:32:07.232,-0.016663615
15:32:07.236,-0.011353232
15:32:07.240,-0.00274675
15:32:07.244,0.007324666
15:32:07.248,0.015198682
15:32:07.252,0.018494781
15:32:07.256,0.020783739
15:32:07.260,0.027009705
15:32:07.264,0.035890862
15:32:07.268,0.042208387
15:32:07.272,0.044314228
15:32:07.276,0.045962278
15:32:07.280,0.051272661
15:32:07.284,0.05951291
15:32:07.288,0.065738876
15:32:07.292,0.066471342
15:32:07.296,0.061527193
15:32:07.300,0.051272661
15:32:07.304,0.034151254
15:32:07.308,0.01254349
15:32:07.312,-0.003753891
15:32:07.316,-0.009064274
15:32:07.320,-0.007141549
15:32:07.324,-0.004669474
15:32:07.328,-0.008057132
15:32:07.332,-0.022340231
15:32:07.336,-0.045779161
15:32:07.340,-0.065281084
15:32:07.344,-0.068943417
15:32:07.348,-0.053653177
15:32:07.352,-0.018403223
15:32:07.356,0.034883721
15:32:07.360,0.1015381798205457
15:32:07.364,0.176707563
15:32:07.368,0.2520600622596594
15:32:07.372,0.3138619300494415
15:32:07.376,0.3405969602636879
15:32:07.380,0.3066288225599707
15:32:07.384,0.2060977842885918
15:32:07.388,0.063541476
15:32:07.392,-0.085607032
15:32:07.396,-0.209119209
15:32:07.400,-0.278978209
15:32:07.404,-0.289690533
15:32:07.408,-0.260574986
15:32:07.412,-0.209210767
15:32:07.416,-0.149514741
15:32:07.420,-0.100622597
15:32:07.424,-0.074162241
15:32:07.428,-0.064640176
15:32:07.432,-0.06061161
15:32:07.436,-0.05731551
15:32:07.440,-0.056399927
15:32:07.444,-0.058780443
15:32:07.448,-0.060245376
15:32:07.452,-0.055301227
15:32:07.456,-0.044039553
15:32:07.460,-0.033052554
15:32:07.464,-0.027650613
15:32:07.468,-0.026918147
15:32:07.472,-0.027559055
15:32:07.476,-0.026918147
15:32:07.480,-0.022889581
15:32:07.484,-0.01474089
15:32:07.488,-0.005218824
15:32:07.492,0.000183117
15:32:07.496,-0.000457792
15:32:07.500,-0.004394799
15:32:07.504,-0.007965574
15:32:07.508,-0.010803882
15:32:07.512,-0.012635049
15:32:07.516,-0.012818165
15:32:07.520,-0.010529207
15:32:07.524,-0.005676616
15:32:07.528,0.001464933
15:32:07.532,0.010254532
15:32:07.536,0.017762315
15:32:07.540,0.021424648
15:32:07.544,0.022340231
15:32:07.548,0.024903864
15:32:07.552,0.031496063
15:32:07.556,0.039186962
15:32:07.560,0.045138253
15:32:07.564,0.050997986
15:32:07.568,0.060153818
15:32:07.572,0.074436916
15:32:07.576,0.091466764
15:32:07.580,0.1077641457608496
15:32:07.584,0.1233290606116096
15:32:07.588,0.1383446255264603
15:32:07.592,0.1509796740523713
15:32:07.596,0.1602270646401758
15:32:07.600,0.1665445889031312
15:32:07.604,0.1709393883904046
15:32:07.608,0.1746017212964658
15:32:07.612,0.1794543123969968
15:32:07.616,0.1865958615638161
15:32:07.620,0.1919978026002563
15:32:07.624,0.1918146859549533
15:32:07.628,0.1880607947262406
15:32:07.632,0.1841237868522248
15:32:07.636,0.1800952206555575
15:32:07.640,0.1732283464566929
15:32:07.644,0.1607764145760849
15:32:07.648,0.1399926753341878
15:32:07.652,0.1099615455044863
15:32:07.656,0.075627175
15:32:07.660,0.046236953
15:32:07.664,0.024629189
15:32:07.668,0.007965574
15:32:07.672,-0.004852591
15:32:07.676,-0.015473357
15:32:07.680,-0.026643472
15:32:07.684,-0.039736312
15:32:07.688,-0.052005127
15:32:07.692,-0.059055118
15:32:07.696,-0.060886285
15:32:07.700,-0.061710309
15:32:07.704,-0.064640176
15:32:07.708,-0.07040835
15:32:07.712,-0.077000549
15:32:07.716,-0.081486907
15:32:07.720,-0.08295184
15:32:07.724,-0.082860282
15:32:07.728,-0.082494049
15:32:07.732,-0.081944699
15:32:07.736,-0.080662882
15:32:07.740,-0.078282366
15:32:07.744,-0.074711591
15:32:07.748,-0.07040835
15:32:07.752,-0.065281084
15:32:07.756,-0.059970701
15:32:07.760,-0.059146676
15:32:07.764,-0.064182384
15:32:07.768,-0.067203809
15:32:07.772,-0.063541476
15:32:07.776,-0.059055118
15:32:07.780,-0.058872001
15:32:07.784,-0.060428493
15:32:07.788,-0.061344076
15:32:07.792,-0.06116096
15:32:07.796,-0.060336935
15:32:07.800,-0.059970701
15:32:07.804,-0.062625893
15:32:07.808,-0.069950559
15:32:07.812,-0.079289507
15:32:07.816,-0.084325215
15:32:07.820,-0.081395349
15:32:07.824,-0.073338216
15:32:07.828,-0.065738876
15:32:07.832,-0.060153818
15:32:07.836,-0.05401941
15:32:07.840,-0.046053836
15:32:07.844,-0.036623329
15:32:07.848,-0.027192822
15:32:07.852,-0.020783739
15:32:07.856,-0.018494781
15:32:07.860,-0.018586339
15:32:07.864,-0.020051273
15:32:07.868,-0.023347372
15:32:07.872,-0.02838308
15:32:07.876,-0.034883721
15:32:07.880,-0.042666178
15:32:07.884,-0.050723311
15:32:07.888,-0.056399927
15:32:07.892,-0.058139535
15:32:07.896,-0.055759018
15:32:07.900,-0.049166819
15:32:07.904,-0.040560337
15:32:07.908,-0.034334371
15:32:07.912,-0.032045413
15:32:07.916,-0.032045413
15:32:07.920,-0.033510346
15:32:07.924,-0.037172679
15:32:07.928,-0.04257462
15:32:07.932,-0.047610328
15:32:07.936,-0.050265519
15:32:07.940,-0.050997986
15:32:07.944,-0.051638894
15:32:07.948,-0.052371361
15:32:07.952,-0.052188244
15:32:07.956,-0.050814869
15:32:07.960,-0.048525911
15:32:07.964,-0.047335653
15:32:07.968,-0.049258378
15:32:07.972,-0.05347006
15:32:07.976,-0.057223952
15:32:07.980,-0.058231093
15:32:07.984,-0.056125252
15:32:07.988,-0.053012269
15:32:07.992,-0.050173961
15:32:07.996,-0.047152536
15:32:08.000,-0.044588903
15:32:08.004,-0.043490203
15:32:08.008,-0.04367332
15:32:08.012,-0.044314228
15:32:08.016,-0.04477202
15:32:08.020,-0.043856437
15:32:08.024,-0.040743454
15:32:08.028,-0.036440212
15:32:08.032,-0.034334371
15:32:08.036,-0.038179821
15:32:08.040,-0.047244094
15:32:08.044,-0.054294085
15:32:08.048,-0.053744735
15:32:08.052,-0.048434353
15:32:08.056,-0.042757737
15:32:08.060,-0.037996704
15:32:08.064,-0.033601904
15:32:08.068,-0.028108405
15:32:08.072,-0.023072697
15:32:08.076,-0.020875298
15:32:08.080,-0.021516206
15:32:08.084,-0.023438931
15:32:08.088,-0.02508698
15:32:08.092,-0.026002564
15:32:08.096,-0.026094122
15:32:08.100,-0.026277239
15:32:08.104,-0.027009705
15:32:08.108,-0.028016847
15:32:08.112,-0.026826589
15:32:08.116,-0.019593481
15:32:08.120,-0.004211683
15:32:08.124,0.016663615
15:32:08.128,0.035433071
15:32:08.132,0.042757737
15:32:08.136,0.037813587
15:32:08.140,0.028749313
15:32:08.144,0.023713606
15:32:08.148,0.023896722
15:32:08.152,0.025544772
15:32:08.156,0.024995422
15:32:08.160,0.021149973
15:32:08.164,0.015564915
15:32:08.168,0.011078557
15:32:08.172,0.008789599
15:32:08.176,0.005768174
15:32:08.180,-0.001281817
15:32:08.184,-0.012360374
15:32:08.188,-0.024079839
15:32:08.192,-0.032411646
15:32:08.196,-0.034975279
15:32:08.200,-0.03277788
15:32:08.204,-0.033693463
15:32:08.208,-0.045504486
15:32:08.212,-0.059238235
15:32:08.216,-0.055209669
15:32:08.220,-0.020966856
15:32:08.224,0.051730452
15:32:08.228,0.156290057
15:32:08.232,0.2586522614905694
15:32:08.236,0.3243911371543673
15:32:08.240,0.3388573521333089
15:32:08.244,0.3026918146859549
15:32:08.248,0.2263321735945797
15:32:08.252,0.1229628273210034
15:32:08.256,-0.000457792
15:32:08.260,-0.136147226
15:32:08.264,-0.25325032
15:32:08.268,-0.310748947
15:32:08.272,-0.294451566
15:32:08.276,-0.223219191
15:32:08.280,-0.137795276
15:32:08.284,-0.077000549
15:32:08.288,-0.052005127
15:32:08.292,-0.049349936
15:32:08.296,-0.047335653
15:32:08.300,-0.035799304
15:32:08.304,-0.020234389
15:32:08.308,-0.008057132
15:32:08.312,-0.002929866
15:32:08.316,-0.004394799
15:32:08.320,-0.008698041
15:32:08.324,-0.011719465
15:32:08.328,-0.010254532
15:32:08.332,-0.003570775
15:32:08.336,0.007049991
15:32:08.340,0.022614906
15:32:08.344,0.041201245
15:32:08.348,0.055026552
15:32:08.352,0.06006226
15:32:08.356,0.059696026
15:32:08.360,0.057498627
15:32:08.364,0.053836294
15:32:08.368,0.048617469
15:32:08.372,0.044039553
15:32:08.376,0.042849295
15:32:08.380,0.045229811
15:32:08.384,0.050540194
15:32:08.388,0.059421351
15:32:08.392,0.07040835
15:32:08.396,0.078923274
15:32:08.400,0.082127815
15:32:08.404,0.081944699
15:32:08.408,0.08185314
15:32:08.412,0.085607032
15:32:08.416,0.095861564
15:32:08.420,0.1106940120856986
15:32:08.424,0.1235121772569126
15:32:08.428,0.1291887932613074
15:32:08.432,0.1279985350668376
15:32:08.436,0.1253433437099432
15:32:08.440,0.1268998351950192
15:32:08.444,0.134316059
15:32:08.448,0.1464017579197949
15:32:08.452,0.1598608313495697
15:32:08.456,0.172038088
15:32:08.460,0.1845815784654825
15:32:08.464,0.2017029848013184
15:32:08.468,0.2211133492034425
15:32:08.472,0.2354880058597326
15:32:08.476,0.2423548800585973
15:32:08.480,0.2449185130928401
15:32:08.484,0.2470243545138253
15:32:08.488,0.2491301959348104
15:32:08.492,0.2477568210950375
15:32:08.496,0.2378685222486724
15:32:08.500,0.2188243911371543
15:32:08.504,0.1961179271195751
15:32:08.508,0.1760666544588903
15:32:08.512,0.1580296648965391
15:32:08.516,0.1409082585607031
15:32:08.520,0.1287310016480498
15:32:08.524,0.121681011
15:32:08.528,0.1139901117011536
15:32:08.532,0.1019044131111518
15:32:08.536,0.087071965
15:32:08.540,0.07260575
15:32:08.544,0.061252518
15:32:08.548,0.055759018
15:32:08.552,0.05401941
15:32:08.556,0.048068119
15:32:08.560,0.030305805
15:32:08.564,0.005676616
15:32:08.568,-0.01254349
15:32:08.572,-0.018586339
15:32:08.576,-0.017579198
15:32:08.580,-0.015564915
15:32:08.584,-0.01419154
15:32:08.588,-0.01309284
15:32:08.592,-0.012635049
15:32:08.596,-0.015564915
15:32:08.600,-0.024354514
15:32:08.604,-0.036257096
15:32:08.608,-0.044955136
15:32:08.612,-0.047885003
15:32:08.616,-0.047885003
15:32:08.620,-0.048159678
15:32:08.624,-0.049166819
15:32:08.628,-0.049716169
15:32:08.632,-0.049807728
15:32:08.636,-0.051913569
15:32:08.640,-0.058597326
15:32:08.644,-0.068027834
15:32:08.648,-0.074070683
15:32:08.652,-0.071323933
15:32:08.656,-0.060428493
15:32:08.660,-0.047885003
15:32:08.664,-0.036714887
15:32:08.668,-0.024720747
15:32:08.672,-0.01419154
15:32:08.676,-0.009522066
15:32:08.680,-0.009613624
15:32:08.684,-0.011353232
15:32:08.688,-0.014099982
15:32:08.692,-0.019501923
15:32:08.696,-0.028108405
15:32:08.700,-0.038088262
15:32:08.704,-0.047885003
15:32:08.708,-0.056399927
15:32:08.712,-0.06116096
15:32:08.716,-0.06061161
15:32:08.720,-0.056857718
15:32:08.724,-0.052462919
15:32:08.728,-0.04696942
15:32:08.732,-0.039919429
15:32:08.736,-0.032503205
15:32:08.740,-0.026460355
15:32:08.744,-0.021424648
15:32:08.748,-0.015564915
15:32:08.752,-0.009705182
15:32:08.756,-0.006134408
15:32:08.760,-0.004669474
15:32:08.764,-0.003112983
15:32:08.768,0
15:32:08.772,0.002014283
15:32:08.776,-0.004120125
15:32:08.780,-0.024812305
15:32:08.784,-0.053378502
15:32:08.788,-0.07370445
15:32:08.792,-0.077824574
15:32:08.796,-0.0709577
15:32:08.800,-0.062534334
15:32:08.804,-0.055942135
15:32:08.808,-0.049441494
15:32:08.812,-0.042757737
15:32:08.816,-0.037355796
15:32:08.820,-0.033418788
15:32:08.824,-0.031312946
15:32:08.828,-0.030946713
15:32:08.832,-0.030672038
15:32:08.836,-0.028566197
15:32:08.840,-0.023622047
15:32:08.844,-0.016755173
15:32:08.848,-0.010712324
15:32:08.852,-0.008423366
15:32:08.856,-0.009430507
15:32:08.860,-0.011902582
15:32:08.864,-0.01474089
15:32:08.868,-0.01693829
15:32:08.872,-0.017670756
15:32:08.876,-0.01693829
15:32:08.880,-0.015748031
15:32:08.884,-0.014832448
15:32:08.888,-0.014283098
15:32:08.892,-0.01419154
15:32:08.896,-0.01529024
15:32:08.900,-0.018586339
15:32:08.904,-0.023072697
15:32:08.908,-0.02618568
15:32:08.912,-0.02673503
15:32:08.916,-0.025361655
15:32:08.920,-0.023805164
15:32:08.924,-0.022431789
15:32:08.928,-0.021058414
15:32:08.932,-0.019685039
15:32:08.936,-0.019044131
15:32:08.940,-0.019410364
15:32:08.944,-0.020692181
15:32:08.948,-0.021424648
15:32:08.952,-0.01693829
15:32:08.956,-0.002929866
15:32:08.960,0.01638894
15:32:08.964,0.030763596
15:32:08.968,0.033418788
15:32:08.972,0.025453214
15:32:08.976,0.011170115
15:32:08.980,-0.005218824
15:32:08.984,-0.020600623
15:32:08.988,-0.032136971
15:32:08.992,-0.038179821
15:32:08.996,-0.040102545
15:32:09.000,-0.040651895
15:32:09.004,-0.04147592
15:32:09.008,-0.042299945
15:32:09.012,-0.042116828
15:32:09.016,-0.039736312
15:32:09.020,-0.035066838
15:32:09.024,-0.031404505
15:32:09.028,-0.038179821
15:32:09.032,-0.063541476
15:32:09.036,-0.091649881
15:32:09.040,-0.08624794
15:32:09.044,-0.023072697
15:32:09.048,0.088079106
15:32:09.052,0.2073796008057132
15:32:09.056,0.2934444240981505
15:32:09.060,0.3270463285112617
15:32:09.064,0.3026918146859549
15:32:09.068,0.2207471159128364
15:32:09.072,0.096319355
15:32:09.076,-0.040194104
15:32:09.080,-0.165354331
15:32:09.084,-0.257004212
15:32:09.088,-0.28767625
15:32:09.092,-0.260483428
15:32:09.096,-0.208752976
15:32:09.100,-0.158945248
15:32:09.104,-0.125801135
15:32:09.108,-0.11078557
15:32:09.112,-0.099981688
15:32:09.116,-0.081303791
15:32:09.120,-0.057773302
15:32:09.124,-0.04037722
15:32:09.128,-0.033601904
15:32:09.132,-0.033418788
15:32:09.136,-0.034700604
15:32:09.140,-0.034700604
15:32:09.144,-0.032594763
15:32:09.148,-0.028749313
15:32:09.152,-0.025453214
15:32:09.156,-0.024262956
15:32:09.160,-0.024354514
15:32:09.164,-0.023713606
15:32:09.168,-0.020875298
15:32:09.172,-0.016022706
15:32:09.176,-0.009430507
15:32:09.180,-0.002472075
15:32:09.184,0.001373375
15:32:09.188,-0.00054935
15:32:09.192,-0.006775316
15:32:09.196,-0.011536349
15:32:09.200,-0.014466215
15:32:09.204,-0.018403223
15:32:09.208,-0.019593481
15:32:09.212,-0.010986999
15:32:09.216,0.007049991
15:32:09.220,0.026918147
15:32:09.224,0.039919429
15:32:09.228,0.043490203
15:32:09.232,0.04147592
15:32:09.236,0.038362937
15:32:09.240,0.036348654
15:32:09.244,0.036257096
15:32:09.248,0.039186962
15:32:09.252,0.043764878
15:32:09.256,0.046877861
15:32:09.260,0.047885003
15:32:09.264,0.051089544
15:32:09.268,0.061618751
15:32:09.272,0.079472624
15:32:09.276,0.098882988
15:32:09.280,0.1138985533785021
15:32:09.284,0.1209485442226698
15:32:09.288,0.1212232191906244
15:32:09.292,0.1203991942867606
15:32:09.296,0.1258926936458524
15:32:09.300,0.1423731917231276
15:32:09.304,0.1653543307086614
15:32:09.308,0.183116645
15:32:09.312,0.18778612
15:32:09.316,0.1828419703351034
15:32:09.320,0.175334188
15:32:09.324,0.1655374473539644
15:32:09.328,0.1479582494048709
15:32:09.332,0.1222303607397912
15:32:09.336,0.096960264
15:32:09.340,0.080937557
15:32:09.344,0.072514192
15:32:09.348,0.063175243
15:32:09.352,0.045962278
15:32:09.356,0.019135689
15:32:09.360,-0.009338949
15:32:09.364,-0.028749313
15:32:09.368,-0.036165537
15:32:09.372,-0.037447354
15:32:09.376,-0.038088262
15:32:09.380,-0.039003845
15:32:09.384,-0.039370079
15:32:09.388,-0.039370079
15:32:09.392,-0.039644754
15:32:09.396,-0.041201245
15:32:09.400,-0.044680461
15:32:09.404,-0.049075261
15:32:09.408,-0.052005127
15:32:09.412,-0.052737594
15:32:09.416,-0.052005127
15:32:09.420,-0.050906427
15:32:09.424,-0.049716169
15:32:09.428,-0.049166819
15:32:09.432,-0.050906427
15:32:09.436,-0.057040835
15:32:09.440,-0.068851859
15:32:09.444,-0.082310932
15:32:09.448,-0.089910273
15:32:09.452,-0.087621315
15:32:09.456,-0.077733016
15:32:09.460,-0.066196667
15:32:09.464,-0.058231093
15:32:09.468,-0.053653177
15:32:09.472,-0.047885003
15:32:09.476,-0.038179821
15:32:09.480,-0.027742172
15:32:09.484,-0.022706464
15:32:09.488,-0.023622047
15:32:09.492,-0.025544772
15:32:09.496,-0.024995422
15:32:09.500,-0.023805164
15:32:09.504,-0.025453214
15:32:09.508,-0.031221388
15:32:09.512,-0.039370079
15:32:09.516,-0.046603186
15:32:09.520,-0.050906427
15:32:09.524,-0.052737594
15:32:09.528,-0.051913569
15:32:09.532,-0.047335653
15:32:09.536,-0.038454496
15:32:09.540,-0.025361655
15:32:09.544,-0.009705182
15:32:09.548,0.002563633
15:32:09.552,0.005768174
15:32:09.556,0.000915583
15:32:09.560,-0.007782457
15:32:09.564,-0.01748764
15:32:09.568,-0.024171397
15:32:09.572,-0.02563633
15:32:09.576,-0.023896722
15:32:09.580,-0.021607764
15:32:09.584,-0.019868156
15:32:09.588,-0.019227248
15:32:09.592,-0.019227248
15:32:09.596,-0.019501923
15:32:09.600,-0.019868156
15:32:09.604,-0.020234389
15:32:09.608,-0.019501923
15:32:09.612,-0.015564915
15:32:09.616,-0.007049991
15:32:09.620,0.003479216
15:32:09.624,0.01089544
15:32:09.628,0.011902582
15:32:09.632,0.007416224
15:32:09.636,-0.000824025
15:32:09.640,-0.013459073
15:32:09.644,-0.029298663
15:32:09.648,-0.04202527
15:32:09.652,-0.047610328
15:32:09.656,-0.048434353
15:32:09.660,-0.046786303
15:32:09.664,-0.041842153
15:32:09.668,-0.033327229
15:32:09.672,-0.024262956
15:32:09.676,-0.015656473
15:32:09.680,-0.006958433
15:32:09.684,-0.003662333
15:32:09.688,-0.011078557
15:32:09.692,-0.026277239
15:32:09.696,-0.043764878
15:32:09.700,-0.059146676
15:32:09.704,-0.068394067
15:32:09.708,-0.069401209
15:32:09.712,-0.065464201
15:32:09.716,-0.060520051
15:32:09.720,-0.054843435
15:32:09.724,-0.047610328
15:32:09.728,-0.037722029
15:32:09.732,-0.024903864
15:32:09.736,-0.012177257
15:32:09.740,-0.005035708
15:32:09.744,-0.006500641
15:32:09.748,-0.013916865
15:32:09.752,-0.021333089
15:32:09.756,-0.025178539
15:32:09.760,-0.023622047
15:32:09.764,-0.016663615
15:32:09.768,-0.007507782
15:32:09.772,0.000640908
15:32:09.776,0.006134408
15:32:09.780,0.008789599
15:32:09.784,0.009338949
15:32:09.788,0.007782457
15:32:09.792,0.0021974
15:32:09.796,-0.007874016
15:32:09.800,-0.021333089
15:32:09.804,-0.034883721
15:32:09.808,-0.045504486
15:32:09.812,-0.052737594
15:32:09.816,-0.058047977
15:32:09.820,-0.06061161
15:32:09.824,-0.056308368
15:32:09.828,-0.045504486
15:32:09.832,-0.03872917
15:32:09.836,-0.042757737
15:32:09.840,-0.052829152
15:32:09.844,-0.060245376
15:32:09.848,-0.049899286
15:32:09.852,-0.005493499
15:32:09.856,0.074070683
15:32:09.860,0.1725874381981322
15:32:09.864,0.2630470609778428
15:32:09.868,0.3174327046328511
15:32:09.872,0.3160593297930782
15:32:09.876,0.2513275956784471
15:32:09.880,0.1337667093938839
15:32:09.884,-0.007141549
15:32:09.888,-0.137612159
15:32:09.892,-0.234755539
15:32:09.896,-0.282091192
15:32:09.900,-0.273026918
15:32:09.904,-0.225782824
15:32:09.908,-0.16865043
15:32:09.912,-0.120582311
15:32:09.916,-0.092382348
15:32:09.920,-0.082127815
15:32:09.924,-0.078831716
15:32:09.928,-0.074436916
15:32:09.932,-0.066196667
15:32:09.936,-0.055301227
15:32:09.940,-0.044955136
15:32:09.944,-0.038088262
15:32:09.948,-0.035249954
15:32:09.952,-0.034883721
15:32:09.956,-0.034975279
15:32:09.960,-0.034151254
15:32:09.964,-0.032594763
15:32:09.968,-0.03222853
15:32:09.972,-0.034151254
15:32:09.976,-0.035890862
15:32:09.980,-0.035158396
15:32:09.984,-0.031953855
15:32:09.988,-0.026826589
15:32:09.992,-0.020509064
15:32:09.996,-0.015381798
15:32:10.000,-0.014283098
15:32:10.004,-0.017853873
15:32:10.008,-0.024262956
15:32:10.012,-0.03058048
15:32:10.016,-0.034059696
15:32:10.020,-0.034334371
15:32:10.024,-0.031221388
15:32:10.028,-0.024903864
15:32:10.032,-0.016297381
15:32:10.036,-0.006683758
15:32:10.040,0.001831166
15:32:10.044,0.007324666
15:32:10.048,0.010254532
15:32:10.052,0.013550632
15:32:10.056,0.018861014
15:32:10.060,0.023255814
15:32:10.064,0.023438931
15:32:10.068,0.021699322
15:32:10.072,0.022340231
15:32:10.076,0.026918147
15:32:10.080,0.037447354
15:32:10.084,0.056857718
15:32:10.088,0.080113532
15:32:10.092,0.097418055
15:32:10.096,0.1060245376304706
15:32:10.100,0.1102362204724409
15:32:10.104,0.1147225782823658
15:32:10.108,0.1220472440944882
15:32:10.112,0.1315693096502472
15:32:10.116,0.1397180003662333
15:32:10.120,0.1447537081120674
15:32:10.124,0.1484160410181285
15:32:10.128,0.151620582
15:32:10.132,0.1533601904413111
15:32:10.136,0.1517121406335836
15:32:10.140,0.1446621497894158
15:32:10.144,0.1313861930049441
15:32:10.148,0.112158945
15:32:10.152,0.087163523
15:32:10.156,0.057956418
15:32:10.160,0.029390222
15:32:10.164,0.007233107
15:32:10.168,-0.005401941
15:32:10.172,-0.010254532
15:32:10.176,-0.011536349
15:32:10.180,-0.012818165
15:32:10.184,-0.016022706
15:32:10.188,-0.019868156
15:32:10.192,-0.021241531
15:32:10.196,-0.020142831
15:32:10.200,-0.018677898
15:32:10.204,-0.017579198
15:32:10.208,-0.017579198
15:32:10.212,-0.020875298
15:32:10.216,-0.02948178
15:32:10.220,-0.040560337
15:32:10.224,-0.048983703
15:32:10.228,-0.05347006
15:32:10.232,-0.055942135
15:32:10.236,-0.058139535
15:32:10.240,-0.059696026
15:32:10.244,-0.060977843
15:32:10.248,-0.063449918
15:32:10.252,-0.068851859
15:32:10.256,-0.078099249
15:32:10.260,-0.088628456
15:32:10.264,-0.095312214
15:32:10.268,-0.096777147
15:32:10.272,-0.095770005
15:32:10.276,-0.094854422
15:32:10.280,-0.094213514
15:32:10.284,-0.093023256
15:32:10.288,-0.092382348
15:32:10.292,-0.094762864
15:32:10.296,-0.101263505
15:32:10.300,-0.107306354
15:32:10.304,-0.108221937
15:32:10.308,-0.102728438
15:32:10.312,-0.092473906
15:32:10.316,-0.081944699
15:32:10.320,-0.07480315
15:32:10.324,-0.070133675
15:32:10.328,-0.066105109
15:32:10.332,-0.062351218
15:32:10.336,-0.059146676
15:32:10.340,-0.057132393
15:32:10.344,-0.056033693
15:32:10.348,-0.054110969
15:32:10.352,-0.050997986
15:32:10.356,-0.047427211
15:32:10.360,-0.044588903
15:32:10.364,-0.042849295
15:32:10.368,-0.039919429
15:32:10.372,-0.03277788
15:32:10.376,-0.022431789
15:32:10.380,-0.012451932
15:32:10.384,-0.004028566
15:32:10.388,0.002472075
15:32:10.392,0.007141549
15:32:10.396,0.010986999
15:32:10.400,0.015381798
15:32:10.404,0.019776598
15:32:10.408,0.023347372
15:32:10.412,0.026460355
15:32:10.416,0.031587621
15:32:10.420,0.040285662
15:32:10.424,0.051364219
15:32:10.428,0.062351218
15:32:10.432,0.069401209
15:32:10.436,0.068577184
15:32:10.440,0.060794726
15:32:10.444,0.052371361
15:32:10.448,0.050357077
15:32:10.452,0.057590185
15:32:10.456,0.069950559
15:32:10.460,0.080205091
15:32:10.464,0.085973265
15:32:10.468,0.090184948
15:32:10.472,0.093664164
15:32:10.476,0.094213514
15:32:10.480,0.092290789
15:32:10.484,0.089818715
15:32:10.488,0.087712873
15:32:10.492,0.084691448
15:32:10.496,0.080205091
15:32:10.500,0.081303791
15:32:10.504,0.094213514
15:32:10.508,0.1098699871818348
15:32:10.512,0.1140816700238051
15:32:10.516,0.1036440212415308
15:32:10.520,0.086980407
15:32:10.524,0.075169383
15:32:10.528,0.072788867
15:32:10.532,0.075993408
15:32:10.536,0.078740157
15:32:10.540,0.078190808
15:32:10.544,0.076634316
15:32:10.548,0.076908991
15:32:10.552,0.078923274
15:32:10.556,0.079930416
15:32:10.560,0.078740157
15:32:10.564,0.077641458
15:32:10.568,0.079838857
15:32:10.572,0.084508332
15:32:10.576,0.089269365
15:32:10.580,0.093297931
15:32:10.584,0.097051822
15:32:10.588,0.098974547
15:32:10.592,0.096410914
15:32:10.596,0.088811573
15:32:10.600,0.079564182
15:32:10.604,0.071232375
15:32:10.608,0.064731734
15:32:10.612,0.062992126
15:32:10.616,0.066746017
15:32:10.620,0.075627175
15:32:10.624,0.089635598
15:32:10.628,0.1021790880791063
15:32:10.632,0.1023622047244094
15:32:10.636,0.085973265
15:32:10.640,0.05896356
15:32:10.644,0.03112983
15:32:10.648,0.007324666
15:32:10.652,-0.009796741
15:32:10.656,-0.016663615
15:32:10.660,-0.015381798
15:32:10.664,-0.013367515
15:32:10.668,-0.012451932
15:32:10.672,-0.008972716
15:32:10.676,-0.008240249
15:32:10.680,-0.01748764
15:32:10.684,-0.028657755
15:32:10.688,-0.021699322
15:32:10.692,0.019135689
15:32:10.696,0.092107673
15:32:10.700,0.1811939205273759
15:32:10.704,0.263413294
15:32:10.708,0.3166086797289874
15:32:10.712,0.329884637
15:32:10.716,0.2954587071964841
15:32:10.720,0.2081120673869254
15:32:10.724,0.084142099
15:32:10.728,-0.048342794
15:32:10.732,-0.166727706
15:32:10.736,-0.248580846
15:32:10.740,-0.27073796
15:32:10.744,-0.232100348
15:32:10.748,-0.165995239
15:32:10.752,-0.107672587
15:32:10.756,-0.071323933
15:32:10.760,-0.058231093
15:32:10.764,-0.05841421
15:32:10.768,-0.058688885
15:32:10.772,-0.055484344
15:32:10.776,-0.048342794
15:32:10.780,-0.032136971
15:32:10.784,-0.006683758
15:32:10.788,0.015107123
15:32:10.792,0.020509064
15:32:10.796,0.008423366
15:32:10.800,-0.010803882
15:32:10.804,-0.024446072
15:32:10.808,-0.026551914
15:32:10.812,-0.020600623
15:32:10.816,-0.01309284
15:32:10.820,-0.007233107
15:32:10.824,-0.004577916
15:32:10.828,-0.007599341
15:32:10.832,-0.01583959
15:32:10.836,-0.023622047
15:32:10.840,-0.027559055
15:32:10.844,-0.029115547
15:32:10.848,-0.029664897
15:32:10.852,-0.028199963
15:32:10.856,-0.021058414
15:32:10.860,-0.006225966
15:32:10.864,0.009979857
15:32:10.868,0.01693829
15:32:10.872,0.012451932
15:32:10.876,0.004028566
15:32:10.880,-0.001922725
15:32:10.884,-0.004852591
15:32:10.888,-0.005493499
15:32:10.892,-0.002105841
15:32:10.896,0.008789599
15:32:10.900,0.027650613
15:32:10.904,0.047610328
15:32:10.908,0.062076543
15:32:10.912,0.07150705
15:32:10.916,0.078831716
15:32:10.920,0.084325215
15:32:10.924,0.090001831
15:32:10.928,0.09989013
15:32:10.932,0.1127998535066837
15:32:10.936,0.1222303607397912
15:32:10.940,0.1248855520966855
15:32:10.944,0.124793994
15:32:10.948,0.1284563266800952
15:32:10.952,0.1387108588170664
15:32:10.956,0.1511627906976744
15:32:10.960,0.1622413477385094
15:32:10.964,0.1707562717451016
15:32:10.968,0.1710309467130562
15:32:10.972,0.1606848562534334
15:32:10.976,0.1440212415308551
15:32:10.980,0.1237868522248672
15:32:10.984,0.1017212964658487
15:32:10.988,0.082219374
15:32:10.992,0.066379784
15:32:10.996,0.052188244
15:32:11.000,0.041109687
15:32:11.004,0.036257096
15:32:11.008,0.035890862
15:32:11.012,0.030763596
15:32:11.016,0.012085699
15:32:11.020,-0.017396081
15:32:11.024,-0.044863578
15:32:11.028,-0.060794726
15:32:11.032,-0.064090826
15:32:11.036,-0.058231093
15:32:11.040,-0.04532137
15:32:11.044,-0.03003113
15:32:11.048,-0.022889581
15:32:11.052,-0.029207105
15:32:11.056,-0.042116828
15:32:11.060,-0.053195385
15:32:11.064,-0.058780443
15:32:11.068,-0.059787585
15:32:11.072,-0.059329793
15:32:11.076,-0.059421351
15:32:11.080,-0.060245376
15:32:11.084,-0.060794726
15:32:11.088,-0.060794726
15:32:11.092,-0.060520051
15:32:11.096,-0.059879143
15:32:11.100,-0.056125252
15:32:11.104,-0.046877861
15:32:11.108,-0.036257096
15:32:11.112,-0.033052554
15:32:11.116,-0.043215528
15:32:11.120,-0.061801868
15:32:11.124,-0.076359641
15:32:11.128,-0.081395349
15:32:11.132,-0.081120674
15:32:11.136,-0.080296649
15:32:11.140,-0.080662882
15:32:11.144,-0.081578465
15:32:11.148,-0.082310932
15:32:11.152,-0.082585607
15:32:11.156,-0.081029116
15:32:11.160,-0.076634316
15:32:11.164,-0.070591467
15:32:11.168,-0.066196667
15:32:11.172,-0.064914851
15:32:11.176,-0.065830434
15:32:11.180,-0.067112251
15:32:11.184,-0.067936275
15:32:11.188,-0.067478484
15:32:11.192,-0.064914851
15:32:11.196,-0.060428493
15:32:11.200,-0.054110969
15:32:11.204,-0.047244094
15:32:11.208,-0.043215528
15:32:11.212,-0.043032412
15:32:11.216,-0.044863578
15:32:11.220,-0.048251236
15:32:11.224,-0.054934994
15:32:11.228,-0.065189526
15:32:11.232,-0.075901849
15:32:11.236,-0.085240798
15:32:11.240,-0.094945981
15:32:11.244,-0.103003113
15:32:11.248,-0.104468046
15:32:11.252,-0.09824208
15:32:11.256,-0.088353781
15:32:11.260,-0.079747299
15:32:11.264,-0.074070683
15:32:11.268,-0.071232375
15:32:11.272,-0.070683025
15:32:11.276,-0.070866142
15:32:11.280,-0.069584325
15:32:11.284,-0.066196667
15:32:11.288,-0.062534334
15:32:11.292,-0.060703168
15:32:11.296,-0.060977843
15:32:11.300,-0.062351218
15:32:11.304,-0.062992126
15:32:11.308,-0.059238235
15:32:11.312,-0.047885003
15:32:11.316,-0.032594763
15:32:11.320,-0.021516206
15:32:11.324,-0.017853873
15:32:11.328,-0.01748764
15:32:11.332,-0.016114265
15:32:11.336,-0.01309284
15:32:11.340,-0.010529207
15:32:11.344,-0.009613624
15:32:11.348,-0.009705182
15:32:11.352,-0.010254532
15:32:11.356,-0.011536349
15:32:11.360,-0.014557773
15:32:11.364,-0.018220106
15:32:11.368,-0.020234389
15:32:11.372,-0.019959714
15:32:11.376,-0.019410364
15:32:11.380,-0.019959714
15:32:11.384,-0.020509064
15:32:11.388,-0.019135689
15:32:11.392,-0.015931148
15:32:11.396,-0.012909723
15:32:11.400,-0.011536349
15:32:11.404,-0.011353232
15:32:11.408,-0.011078557
15:32:11.412,-0.009796741
15:32:11.416,-0.007324666
15:32:11.420,-0.003112983
15:32:11.424,0.0021974
15:32:11.428,0.006409083
15:32:11.432,0.006592199
15:32:11.436,0.002105841
15:32:11.440,-0.004394799
15:32:11.444,-0.008514924
15:32:11.448,-0.006317524
15:32:11.452,0.001922725
15:32:11.456,0.01199414
15:32:11.460,0.020966856
15:32:11.464,0.027375938
15:32:11.468,0.025544772
15:32:11.472,0.012177257
15:32:11.476,-0.008606482
15:32:11.480,-0.03058048
15:32:11.484,-0.047976561
15:32:11.488,-0.05676616
15:32:11.492,-0.058322652
15:32:11.496,-0.057407068
15:32:11.500,-0.056857718
15:32:11.504,-0.055942135
15:32:11.508,-0.053744735
15:32:11.512,-0.054477202
15:32:11.516,-0.063633034
15:32:11.520,-0.075444058
15:32:11.524,-0.077549899
15:32:11.528,-0.072147958
15:32:11.532,-0.067020692
15:32:11.536,-0.055575902
15:32:11.540,-0.017579198
15:32:11.544,0.059970701
15:32:11.548,0.1624244643838125
15:32:11.552,0.2559055118110236
15:32:11.556,0.3041567478483794
15:32:11.560,0.2787950924739059
15:32:11.564,0.178447171
15:32:11.568,0.033144113
15:32:11.572,-0.11518037
15:32:11.576,-0.237410731
15:32:11.580,-0.314045047
15:32:11.584,-0.333180736
15:32:11.588,-0.309192456
15:32:11.592,-0.267899652
15:32:11.596,-0.224592565
15:32:11.600,-0.193004944
15:32:11.604,-0.179271196
15:32:11.608,-0.175151071
15:32:11.612,-0.16974913
15:32:11.616,-0.157938107
15:32:11.620,-0.141182934
15:32:11.624,-0.126716719
15:32:11.628,-0.121589452
15:32:11.632,-0.124885552
15:32:11.636,-0.131752426
15:32:11.640,-0.139992675
15:32:11.644,-0.146493316
15:32:11.648,-0.145943966
15:32:11.652,-0.136696576
15:32:11.656,-0.123329061
15:32:11.660,-0.114264787
15:32:11.664,-0.114447903
15:32:11.668,-0.122138802
15:32:11.672,-0.131294635
15:32:11.676,-0.139718
15:32:11.680,-0.148416041
15:32:11.684,-0.15390954
15:32:11.688,-0.149697858
15:32:11.692,-0.135506318
15:32:11.696,-0.120765428
15:32:11.700,-0.117103095
15:32:11.704,-0.124336202
15:32:11.708,-0.132484893
15:32:11.712,-0.136238784
15:32:11.716,-0.137520601
15:32:11.720,-0.138344626
15:32:11.724,-0.137612159
15:32:11.728,-0.134682293
15:32:11.732,-0.131843985
15:32:11.736,-0.13101996
15:32:11.740,-0.131935543
15:32:11.744,-0.132942684
15:32:11.748,-0.130287493
15:32:11.752,-0.120765428
15:32:11.756,-0.105292071
15:32:11.760,-0.088720015
15:32:11.764,-0.07480315
15:32:11.768,-0.065281084
15:32:11.772,-0.05841421
15:32:11.776,-0.050173961
15:32:11.780,-0.039186962
15:32:11.784,-0.023805164
15:32:11.788,-0.002655191
15:32:11.792,0.019410364
15:32:11.796,0.035707746
15:32:11.800,0.044863578
15:32:11.804,0.050814869
15:32:11.808,0.058139535
15:32:11.812,0.067844717
15:32:11.816,0.077275224
15:32:11.820,0.084416773
15:32:11.824,0.090459623
15:32:11.828,0.096410914
15:32:11.832,0.1009888298846365
15:32:11.836,0.1032777879509247
15:32:11.840,0.10263688
15:32:11.844,0.098882988
15:32:11.848,0.092382348
15:32:11.852,0.083409632
15:32:11.856,0.072971983
15:32:11.860,0.065555759
15:32:11.864,0.06930965
15:32:11.868,0.087621315
15:32:11.872,0.1127998535066837
15:32:11.876,0.1320271012635048
15:32:11.880,0.140358909
15:32:11.884,0.1425563083684307
15:32:11.888,0.1450283830800219
15:32:11.892,0.1493316242446438
15:32:11.896,0.1537264237319172
15:32:11.900,0.157663432
15:32:11.904,0.1612342061893426
15:32:11.908,0.1641640725141915
15:32:11.912,0.1663614722578282
15:32:11.916,0.1681010803882072
15:32:11.920,0.1702069218091924
15:32:11.924,0.17359458
15:32:11.928,0.1792711957516938
15:32:11.932,0.1868705365317707
15:32:11.936,0.194195202
15:32:11.940,0.198864677
15:32:11.944,0.200421168
15:32:11.948,0.1997802600256363
15:32:11.952,0.1987731184764695
15:32:11.956,0.2007874015748031
15:32:11.960,0.2079289507416224
15:32:11.964,0.2168101080388207
15:32:11.968,0.2205639992675334
15:32:11.972,0.2181834828785936
15:32:11.976,0.2144295916498809
15:32:11.980,0.2125068668741988
15:32:11.984,0.2111334920344259
15:32:11.988,0.2087529756454861
15:32:11.992,0.2055484343526826
15:32:11.996,0.2011536348654092
15:32:12.000,0.1951107855704083
15:32:12.004,0.1897088445339681
15:32:12.008,0.1873283281450284
15:32:12.012,0.1864127449185131
15:32:12.016,0.1857718366599524
15:32:12.020,0.1867789782091192
15:32:12.024,0.1904413111151803
15:32:12.028,0.1945614356344991
15:32:12.032,0.195568577
15:32:12.036,0.1925471525361655
15:32:12.040,0.1878776780809375
15:32:12.044,0.1843984618201794
15:32:12.048,0.1839406702069218
15:32:12.052,0.1853140450466947
15:32:12.056,0.1865043032411646
15:32:12.060,0.1871452114997253
15:32:12.064,0.18778612
15:32:12.068,0.1884270280168467
15:32:12.072,0.1865958615638161
15:32:12.076,0.1791796374290423
15:32:12.080,0.1681010803882072
15:32:12.084,0.1606848562534334
15:32:12.088,0.1608679728987365
15:32:12.092,0.1638893975462369
15:32:12.096,0.1605017396081303
15:32:12.100,0.1443874748214612
15:32:12.104,0.1197582860281999
15:32:12.108,0.098333639
15:32:12.112,0.086888848
15:32:12.116,0.084325215
15:32:12.120,0.085973265
15:32:12.124,0.086980407
15:32:12.128,0.08295184
15:32:12.132,0.071140817
15:32:12.136,0.054660319
15:32:12.140,0.041567478
15:32:12.144,0.036073979
15:32:12.148,0.035158396
15:32:12.152,0.033052554
15:32:12.156,0.027101264
15:32:12.160,0.019318806
15:32:12.164,0.012909723
15:32:12.168,0.007049991
15:32:12.172,-0.000915583
15:32:12.176,-0.010071415
15:32:12.180,-0.01693829
15:32:12.184,-0.020051273
15:32:12.188,-0.020692181
15:32:12.192,-0.020142831
15:32:12.196,-0.019593481
15:32:12.200,-0.020600623
15:32:12.204,-0.02508698
15:32:12.208,-0.033601904
15:32:12.212,-0.042483062
15:32:12.216,-0.045412928
15:32:12.220,-0.041109687
15:32:12.224,-0.034609046
15:32:12.228,-0.03058048
15:32:12.232,-0.029207105
15:32:12.236,-0.028291522
15:32:12.240,-0.02728438
15:32:12.244,-0.026002564
15:32:12.248,-0.024812305
15:32:12.252,-0.02453763
15:32:12.256,-0.026277239
15:32:12.260,-0.030763596
15:32:12.264,-0.038637612
15:32:12.268,-0.048068119
15:32:12.272,-0.05566746
15:32:12.276,-0.060428493
15:32:12.280,-0.062900568
15:32:12.284,-0.062717451
15:32:12.288,-0.060245376
15:32:12.292,-0.056583043
15:32:12.296,-0.052188244
15:32:12.300,-0.048159678
15:32:12.304,-0.049258378
15:32:12.308,-0.062076543
15:32:12.312,-0.08405054
15:32:12.316,-0.095495331
15:32:12.320,-0.072971983
15:32:12.324,-0.009705182
15:32:12.328,0.08185314
15:32:12.332,0.1776231459439663
15:32:12.336,0.2483977293535982
15:32:12.340,0.2739425013733748
15:32:12.344,0.2495879875480681
15:32:12.348,0.1740523713605566
15:32:12.352,0.053378502
15:32:12.356,-0.080845999
15:32:12.360,-0.192364036
15:32:12.364,-0.263596411
15:32:12.368,-0.285936642
15:32:12.372,-0.264511994
15:32:12.376,-0.227156198
15:32:12.380,-0.198864677
15:32:12.384,-0.181834829
15:32:12.388,-0.161691998
15:32:12.392,-0.127998535
15:32:12.396,-0.088536898
15:32:12.400,-0.060794726
15:32:12.404,-0.049807728
15:32:12.408,-0.047793444
15:32:12.412,-0.048159678
15:32:12.416,-0.049349936
15:32:12.420,-0.051272661
15:32:12.424,-0.052279802
15:32:12.428,-0.050814869
15:32:12.432,-0.047060978
15:32:12.436,-0.042391503
15:32:12.440,-0.038362937
15:32:12.444,-0.036257096
15:32:12.448,-0.035890862
15:32:12.452,-0.035707746
15:32:12.456,-0.034700604
15:32:12.460,-0.032869438
15:32:12.464,-0.029573338
15:32:12.468,-0.024995422
15:32:12.472,-0.021699322
15:32:12.476,-0.022614906
15:32:12.480,-0.027375938
15:32:12.484,-0.033235671
15:32:12.488,-0.037172679
15:32:12.492,-0.037905146
15:32:12.496,-0.035158396
15:32:12.500,-0.02838308
15:32:12.504,-0.019135689
15:32:12.508,-0.011627907
15:32:12.512,-0.008331807
15:32:12.516,-0.007599341
15:32:12.520,-0.006866874
15:32:12.524,-0.005218824
15:32:12.528,-0.002380516
15:32:12.532,0.0032961
15:32:12.536,0.012909723
15:32:12.540,0.02453763
15:32:12.544,0.036806446
15:32:12.548,0.050082402
15:32:12.552,0.064182384
15:32:12.556,0.078557041
15:32:12.560,0.092565464
15:32:12.564,0.1038271378868339
15:32:12.568,0.1100531038271378
15:32:12.572,0.1111518036989562
15:32:12.576,0.109045962
15:32:12.580,0.1062992125984252
15:32:12.584,0.1045596044680461
15:32:12.588,0.105749863
15:32:12.592,0.1110602453763047
15:32:12.596,0.1196667277055484
15:32:12.600,0.1277238600988829
15:32:12.604,0.1297381431972166
15:32:12.608,0.1233290606116096
15:32:12.612,0.1071232375022889
15:32:12.616,0.077916133
15:32:12.620,0.041384362
15:32:12.624,0.012085699
15:32:12.628,-0.004577916
15:32:12.632,-0.014832448
15:32:12.636,-0.023805164
15:32:12.640,-0.032686321
15:32:12.644,-0.041659037
15:32:12.648,-0.050814869
15:32:12.652,-0.060428493
15:32:12.656,-0.069401209
15:32:12.660,-0.075260941
15:32:12.664,-0.077549899
15:32:12.668,-0.078740157
15:32:12.672,-0.081486907
15:32:12.676,-0.085607032
15:32:12.680,-0.088170665
15:32:12.684,-0.086888848
15:32:12.688,-0.082677165
15:32:12.692,-0.079747299
15:32:12.696,-0.081303791
15:32:12.700,-0.085790148
15:32:12.704,-0.090093389
15:32:12.708,-0.091832998
15:32:12.712,-0.090276506
15:32:12.716,-0.08679729
15:32:12.720,-0.083043399
15:32:12.724,-0.079381066
15:32:12.728,-0.076542758
15:32:12.732,-0.075169383
15:32:12.736,-0.074711591
15:32:12.740,-0.074894708
15:32:12.744,-0.076451199
15:32:12.748,-0.079838857
15:32:12.752,-0.08295184
15:32:12.756,-0.082494049
15:32:12.760,-0.078648599
15:32:12.764,-0.074894708
15:32:12.768,-0.073521333
15:32:12.772,-0.073796008
15:32:12.776,-0.074528475
15:32:12.780,-0.07480315
15:32:12.784,-0.07370445
15:32:12.788,-0.071140817
15:32:12.792,-0.068394067
15:32:12.796,-0.066013551
15:32:12.800,-0.062992126
15:32:12.804,-0.058688885
15:32:12.808,-0.053927852
15:32:12.812,-0.049899286
15:32:12.816,-0.04642007
15:32:12.820,-0.04257462
15:32:12.824,-0.038912287
15:32:12.828,-0.037172679
15:32:12.832,-0.037172679
15:32:12.836,-0.037722029
15:32:12.840,-0.037905146
15:32:12.844,-0.036623329
15:32:12.848,-0.033235671
15:32:12.852,-0.02893243
15:32:12.856,-0.025453214
15:32:12.860,-0.024079839
15:32:12.864,-0.024995422
15:32:12.868,-0.027559055
15:32:12.872,-0.030122688
15:32:12.876,-0.03112983
15:32:12.880,-0.030855155
15:32:12.884,-0.030488921
15:32:12.888,-0.032503205
15:32:12.892,-0.038820729
15:32:12.896,-0.047427211
15:32:12.900,-0.053653177
15:32:12.904,-0.054843435
15:32:12.908,-0.052646036
15:32:12.912,-0.049899286
15:32:12.916,-0.047701886
15:32:12.920,-0.045596045
15:32:12.924,-0.044039553
15:32:12.928,-0.043398645
15:32:12.932,-0.042483062
15:32:12.936,-0.039919429
15:32:12.940,-0.035707746
15:32:12.944,-0.031038271
15:32:12.948,-0.026460355
15:32:12.952,-0.022523347
15:32:12.956,-0.018952573
15:32:12.960,-0.014557773
15:32:12.964,-0.010712324
15:32:12.968,-0.010803882
15:32:12.972,-0.01583959
15:32:12.976,-0.023347372
15:32:12.980,-0.029207105
15:32:12.984,-0.031953855
15:32:12.988,-0.03222853
15:32:12.992,-0.028291522
15:32:12.996,-0.01748764
15:32:13.000,-0.002563633
15:32:13.004,0.009979857
15:32:13.008,0.017762315
15:32:13.012,0.022157114
15:32:13.016,0.025270097
15:32:13.020,0.028749313
15:32:13.024,0.032136971
15:32:13.028,0.034151254
15:32:13.032,0.035249954
15:32:13.036,0.036623329
15:32:13.040,0.038179821
15:32:13.044,0.03872917
15:32:13.048,0.035799304
15:32:13.052,0.02728438
15:32:13.056,0.014649332
15:32:13.060,0.002655191
15:32:13.064,-0.004761033
15:32:13.068,-0.007599341
15:32:13.072,-0.009155832
15:32:13.076,-0.013275957
15:32:13.080,-0.019959714
15:32:13.084,-0.023164256
15:32:13.088,-0.022157114
15:32:13.092,-0.020875298
15:32:13.096,-0.010437649
15:32:13.100,0.021607764
15:32:13.104,0.077549899
15:32:13.108,0.1588536898004028
15:32:13.112,0.2548983702618568
15:32:13.116,0.334370994
15:32:13.120,0.3689800402856619
15:32:13.124,0.348745651
15:32:13.128,0.2799853506683757
15:32:13.132,0.1743270463285112
15:32:13.136,0.052371361
15:32:13.140,-0.064090826
15:32:13.144,-0.165171214
15:32:13.148,-0.233748398
15:32:13.152,-0.249954221
15:32:13.156,-0.215802966
15:32:13.160,-0.151803699
15:32:13.164,-0.091100531
15:32:13.168,-0.058047977
15:32:13.172,-0.045779161
15:32:13.176,-0.035707746
15:32:13.180,-0.022065556
15:32:13.184,-0.008331807
15:32:13.188,0.003570775
15:32:13.192,0.01419154
15:32:13.196,0.025270097
15:32:13.200,0.035158396
15:32:13.204,0.035707746
15:32:13.208,0.023164256
15:32:13.212,0.004211683
15:32:13.216,-0.013001282
15:32:13.220,-0.02508698
15:32:13.224,-0.029664897
15:32:13.228,-0.02673503
15:32:13.232,-0.020509064
15:32:13.236,-0.014099982
15:32:13.240,-0.006409083
15:32:13.244,0.003112983
15:32:13.248,0.01309284
15:32:13.252,0.021607764
15:32:13.256,0.028108405
15:32:13.260,0.031862296
15:32:13.264,0.02893243
15:32:13.268,0.019776598
15:32:13.272,0.011902582
15:32:13.276,0.009064274
15:32:13.280,0.009522066
15:32:13.284,0.012268815
15:32:13.288,0.018311665
15:32:13.292,0.02618568
15:32:13.296,0.032045413
15:32:13.300,0.034975279
15:32:13.304,0.037996704
15:32:13.308,0.043215528
15:32:13.312,0.048800586
15:32:13.316,0.053195385
15:32:13.320,0.058597326
15:32:13.324,0.067386925
15:32:13.328,0.081578465
15:32:13.332,0.1005310382713788
15:32:13.336,0.1196667277055484
15:32:13.340,0.1338582677165354
15:32:13.344,0.1409998168833547
15:32:13.348,0.1423731917231276
15:32:13.352,0.1409998168833547
15:32:13.356,0.1393517670756272
15:32:13.360,0.1394433253982787
15:32:13.364,0.1445705914667643
15:32:13.368,0.1549166819263871
15:32:13.372,0.1639809558688884
15:32:13.376,0.1652627723860099
15:32:13.380,0.157846548
15:32:13.384,0.1415491668192638
15:32:13.388,0.120124519
15:32:13.392,0.1032777879509247
15:32:13.396,0.092657023
15:32:13.400,0.078465483
15:32:13.404,0.055209669
15:32:13.408,0.02838308
15:32:13.412,0.006958433
15:32:13.416,-0.005218824
15:32:13.420,-0.009522066
15:32:13.424,-0.008514924
15:32:13.428,-0.004944149
15:32:13.432,-0.000640908
15:32:13.436,0.002288958
15:32:13.440,0.000183117
15:32:13.444,-0.011902582
15:32:13.448,-0.032136971
15:32:13.452,-0.050997986
15:32:13.456,-0.062259659
15:32:13.460,-0.066105109
15:32:13.464,-0.065006409
15:32:13.468,-0.061252518
15:32:13.472,-0.056491485
15:32:13.476,-0.052096686
15:32:13.480,-0.050265519
15:32:13.484,-0.053378502
15:32:13.488,-0.060153818
15:32:13.492,-0.068485625
15:32:13.496,-0.078557041
15:32:13.500,-0.08679729
15:32:13.504,-0.086339498
15:32:13.508,-0.074894708
15:32:13.512,-0.059421351
15:32:13.516,-0.049899286
15:32:13.520,-0.048892144
15:32:13.524,-0.050814869
15:32:13.528,-0.050997986
15:32:13.532,-0.050082402
15:32:13.536,-0.050906427
15:32:13.540,-0.056125252
15:32:13.544,-0.064457059
15:32:13.548,-0.070042117
15:32:13.552,-0.069126534
15:32:13.556,-0.066196667
15:32:13.560,-0.065464201
15:32:13.564,-0.065372642
15:32:13.568,-0.062625893
15:32:13.572,-0.056399927
15:32:13.576,-0.048159678
15:32:13.580,-0.040651895
15:32:13.584,-0.036531771
15:32:13.588,-0.035707746
15:32:13.592,-0.036440212
15:32:13.596,-0.037538912
15:32:13.600,-0.039186962
15:32:13.604,-0.041567478
15:32:13.608,-0.043856437
15:32:13.612,-0.045779161
15:32:13.616,-0.048251236
15:32:13.620,-0.050997986
15:32:13.624,-0.05347006
15:32:13.628,-0.055026552
15:32:13.632,-0.056033693
15:32:13.636,-0.057590185
15:32:13.640,-0.060245376
15:32:13.644,-0.063358359
15:32:13.648,-0.066288226
15:32:13.652,-0.069034975
15:32:13.656,-0.07260575
15:32:13.660,-0.076084966
15:32:13.664,-0.075627175
15:32:13.668,-0.068027834
15:32:13.672,-0.053195385
15:32:13.676,-0.036531771
15:32:13.680,-0.029390222
15:32:13.684,-0.040285662
15:32:13.688,-0.062534334
15:32:13.692,-0.082310932
15:32:13.696,-0.095129097
15:32:13.700,-0.101995971
15:32:13.704,-0.100805713
15:32:13.708,-0.089635598
15:32:13.712,-0.071415492
15:32:13.716,-0.05347006
15:32:13.720,-0.04312397
15:32:13.724,-0.043307087
15:32:13.728,-0.050082402
15:32:13.732,-0.05731551
15:32:13.736,-0.062351218
15:32:13.740,-0.064182384
15:32:13.744,-0.062809009
15:32:13.748,-0.060703168
15:32:13.752,-0.059604468
15:32:13.756,-0.059329793
15:32:13.760,-0.059238235
15:32:13.764,-0.059329793
15:32:13.768,-0.060703168
15:32:13.772,-0.064090826
15:32:13.776,-0.068943417
15:32:13.780,-0.073063541
15:32:13.784,-0.07370445
15:32:13.788,-0.067203809
15:32:13.792,-0.051730452
15:32:13.796,-0.032411646
15:32:13.800,-0.018586339
15:32:13.804,-0.013916865
15:32:13.808,-0.014557773
15:32:13.812,-0.016572056
15:32:13.816,-0.018311665
15:32:13.820,-0.018952573
15:32:13.824,-0.01638894
15:32:13.828,-0.008423366
15:32:13.832,0.002288958
15:32:13.836,0.009888299
15:32:13.840,0.01089544
15:32:13.844,0.007324666
15:32:13.848,0.003479216
15:32:13.852,0.000824025
15:32:13.856,-0.002838308
15:32:13.860,-0.010803882
15:32:13.864,-0.022798022
15:32:13.868,-0.034700604
15:32:13.872,-0.04532137
15:32:13.876,-0.057498627
15:32:13.880,-0.068485625
15:32:13.884,-0.07260575
15:32:13.888,-0.071964842
15:32:13.892,-0.078190808
15:32:13.896,-0.098150522
15:32:13.900,-0.116919978
15:32:13.904,-0.108038821
15:32:13.908,-0.061710309
15:32:13.912,0.009888299
15:32:13.916,0.095953122
15:32:13.920,0.1896172862113166
15:32:13.924,0.2708295184032228
15:32:13.928,0.3163340047610328
15:32:13.932,0.306171031
15:32:13.936,0.224134774
15:32:13.940,0.085607032
15:32:13.944,-0.065006409
15:32:13.948,-0.190258194
15:32:13.952,-0.267899652
15:32:13.956,-0.288958066
15:32:13.960,-0.262955503
15:32:13.964,-0.216443875
15:32:13.968,-0.17139718
15:32:13.972,-0.136971251
15:32:13.976,-0.116462186
15:32:13.980,-0.105017396
15:32:13.984,-0.092840139
15:32:13.988,-0.076908991
15:32:13.992,-0.062259659
15:32:13.996,-0.054202527
15:32:14.000,-0.052646036
15:32:14.004,-0.053195385
15:32:14.008,-0.053195385
15:32:14.012,-0.052188244
15:32:14.016,-0.050631752
15:32:14.020,-0.048068119
15:32:14.024,-0.043581762
15:32:14.028,-0.036898004
15:32:14.032,-0.028657755
15:32:14.036,-0.020509064
15:32:14.040,-0.013916865
15:32:14.044,-0.009522066
15:32:14.048,-0.006500641
15:32:14.052,-0.004028566
15:32:14.056,-0.002563633
15:32:14.060,-0.002105841
15:32:14.064,-0.0010987
15:32:14.068,0.002014283
15:32:14.072,0.006592199
15:32:14.076,0.009613624
15:32:14.080,0.009979857
15:32:14.084,0.009064274
15:32:14.088,0.010254532
15:32:14.092,0.015564915
15:32:14.096,0.022798022
15:32:14.100,0.026826589
15:32:14.104,0.026094122
15:32:14.108,0.023713606
15:32:14.112,0.023805164
15:32:14.116,0.02838308
15:32:14.120,0.038546054
15:32:14.124,0.052554477
15:32:14.128,0.066654459
15:32:14.132,0.080296649
15:32:14.136,0.094671306
15:32:14.140,0.1081303790514557
15:32:14.144,0.1182933528657755
15:32:14.148,0.1264420435817616
15:32:14.152,0.134316059
15:32:14.156,0.1409082585607031
15:32:14.160,0.1475920161142647
15:32:14.164,0.1591283647683574
15:32:14.168,0.1742354880058597
15:32:14.172,0.1855887200146493
15:32:14.176,0.1891594945980589
15:32:14.180,0.1864127449185131
15:32:14.184,0.1783556125251785
15:32:14.188,0.1646218641274492
15:32:14.192,0.1457608496612342
15:32:14.196,0.126167369
15:32:14.200,0.1108771287310016
15:32:14.204,0.099066105
15:32:14.208,0.085973265
15:32:14.212,0.070042117
15:32:14.216,0.053561619
15:32:14.220,0.038362937
15:32:14.224,0.024629189
15:32:14.228,0.01254349
15:32:14.232,0.002655191
15:32:14.236,-0.005951291
15:32:14.240,-0.015198682
15:32:14.244,-0.024812305
15:32:14.248,-0.033968138
15:32:14.252,-0.041201245
15:32:14.256,-0.045779161
15:32:14.260,-0.048251236
15:32:14.264,-0.049624611
15:32:14.268,-0.049990844
15:32:14.272,-0.048617469
15:32:14.276,-0.045596045
15:32:14.280,-0.04147592
15:32:14.284,-0.037172679
15:32:14.288,-0.034242813
15:32:14.292,-0.033327229
15:32:14.296,-0.033418788
15:32:14.300,-0.033327229
15:32:14.304,-0.032869438
15:32:14.308,-0.033052554
15:32:14.312,-0.034975279
15:32:14.316,-0.03982787
15:32:14.320,-0.047701886
15:32:14.324,-0.057040835
15:32:14.328,-0.065189526
15:32:14.332,-0.0709577
15:32:14.336,-0.073979125
15:32:14.340,-0.071781725
15:32:14.344,-0.061252518
15:32:14.348,-0.04367332
15:32:14.352,-0.026002564
15:32:14.356,-0.014649332
15:32:14.360,-0.010986999
15:32:14.364,-0.01309284
15:32:14.368,-0.017579198
15:32:14.372,-0.021058414
15:32:14.376,-0.022248672
15:32:14.380,-0.022157114
15:32:14.384,-0.022065556
15:32:14.388,-0.022065556
15:32:14.392,-0.022065556
15:32:14.396,-0.022157114
15:32:14.400,-0.023347372
15:32:14.404,-0.026094122
15:32:14.408,-0.028749313
15:32:14.412,-0.028566197
15:32:14.416,-0.025453214
15:32:14.420,-0.021882439
15:32:14.424,-0.019685039
15:32:14.428,-0.018861014
15:32:14.432,-0.019135689
15:32:14.436,-0.020509064
15:32:14.440,-0.023438931
15:32:14.444,-0.027375938
15:32:14.448,-0.030397363
15:32:14.452,-0.029390222
15:32:14.456,-0.024079839
15:32:14.460,-0.017853873
15:32:14.464,-0.01419154
15:32:14.468,-0.013550632
15:32:14.472,-0.014099982
15:32:14.476,-0.01474089
15:32:14.480,-0.015015565
15:32:14.484,-0.014283098
15:32:14.488,-0.01089544
15:32:14.492,-0.004852591
15:32:14.496,0.001556491
15:32:14.500,0.005676616
15:32:14.504,0.004394799
15:32:14.508,-0.002472075
15:32:14.512,-0.010803882
15:32:14.516,-0.014557773
15:32:14.520,-0.012360374
15:32:14.524,-0.007599341
15:32:14.528,-0.004028566
15:32:14.532,-0.002380516
15:32:14.536,-0.001831166
15:32:14.540,-0.001281817
15:32:14.544,0.000274675
15:32:14.548,0.003937008
15:32:14.552,0.009613624
15:32:14.556,0.015381798
15:32:14.560,0.020692181
15:32:14.564,0.026826589
15:32:14.568,0.032136971
15:32:14.572,0.033144113
15:32:14.576,0.029207105
15:32:14.580,0.023164256
15:32:14.584,0.018861014
15:32:14.588,0.017762315
15:32:14.592,0.018494781
15:32:14.596,0.018769456
15:32:14.600,0.01638894
15:32:14.604,0.011353232
15:32:14.608,0.008240249
15:32:14.612,0.01309284
15:32:14.616,0.025270097
15:32:14.620,0.039003845
15:32:14.624,0.050540194
15:32:14.628,0.058139535
15:32:14.632,0.060977843
15:32:14.636,0.061527193
15:32:14.640,0.062442776
15:32:14.644,0.064548617
15:32:14.648,0.066837576
15:32:14.652,0.069034975
15:32:14.656,0.0709577
15:32:14.660,0.0720564
15:32:14.664,0.072422633
15:32:14.668,0.072697308
15:32:14.672,0.073521333
15:32:14.676,0.073979125
15:32:14.680,0.070591467
15:32:14.684,0.059696026
15:32:14.688,0.043215528
15:32:14.692,0.029207105
15:32:14.696,0.021333089
15:32:14.700,0.01638894
15:32:14.704,0.013367515
15:32:14.708,0.013367515
15:32:14.712,0.013184398
15:32:14.716,0.007874016
15:32:14.720,0.000732467
15:32:14.724,0.000274675
15:32:14.728,0.011536349
15:32:14.732,0.039095404
15:32:14.736,0.087621315
15:32:14.740,0.1591283647683574
15:32:14.744,0.2486724043215528
15:32:14.748,0.3365683940670207
15:32:14.752,0.3961728621131661
15:32:14.756,0.4049624610877129
15:32:14.760,0.3461820179454312
15:32:14.764,0.2233107489470792
15:32:14.768,0.067020692
15:32:14.772,-0.082494049
15:32:14.776,-0.191265336
15:32:14.780,-0.234297748
15:32:14.784,-0.210492584
15:32:14.788,-0.149423183
15:32:14.792,-0.086064823
15:32:14.796,-0.040743454
15:32:14.800,-0.017945431
15:32:14.804,-0.009064274
15:32:14.808,-0.004761033
15:32:14.812,-0.00274675
15:32:14.816,-0.0010987
15:32:14.820,0.004303241
15:32:14.824,0.015015565
15:32:14.828,0.026918147
15:32:14.832,0.034792163
15:32:14.836,0.037538912
15:32:14.840,0.037172679
15:32:14.844,0.035799304
15:32:14.848,0.034151254
15:32:14.852,0.030855155
15:32:14.856,0.025270097
15:32:14.860,0.019410364
15:32:14.864,0.01583959
15:32:14.868,0.014832448
15:32:14.872,0.01474089
15:32:14.876,0.014283098
15:32:14.880,0.015015565
15:32:14.884,0.020234389
15:32:14.888,0.031587621
15:32:14.892,0.044588903
15:32:14.896,0.052829152
15:32:14.900,0.054385644
15:32:14.904,0.053378502
15:32:14.908,0.055301227
15:32:14.912,0.063175243
15:32:14.916,0.074528475
15:32:14.920,0.082768724
15:32:14.924,0.084691448
15:32:14.928,0.082494049
15:32:14.932,0.079472624
15:32:14.936,0.077092108
15:32:14.940,0.074894708
15:32:14.944,0.073521333
15:32:14.948,0.07480315
15:32:14.952,0.081212232
15:32:14.956,0.095129097
15:32:14.960,0.1165537447353964
15:32:14.964,0.1394433253982787
15:32:14.968,0.1553744735396447
15:32:14.972,0.1612342061893426
15:32:14.976,0.1615088811572972
15:32:14.980,0.1617835561252517
15:32:14.984,0.1650796557407068
15:32:14.988,0.1698406885185863
15:32:14.992,0.1749679545870719
15:32:14.996,0.1808276872367698
15:32:15.000,0.1858633949826039
15:32:15.004,0.186229628
15:32:15.008,0.1810108038820728
15:32:15.012,0.1734114631019959
15:32:15.016,0.1670023805163889
15:32:15.020,0.1618751144479033
15:32:15.024,0.1550082402490386
15:32:15.028,0.1412744918513092
15:32:15.032,0.1164621864127449
15:32:15.036,0.083958982
15:32:15.040,0.055209669
15:32:15.044,0.038362937
15:32:15.048,0.032594763
15:32:15.052,0.032686321
15:32:15.056,0.034334371
15:32:15.060,0.033510346
15:32:15.064,0.023713606
15:32:15.068,-0.000457792
15:32:15.072,-0.03222853
15:32:15.076,-0.055026552
15:32:15.080,-0.061527193
15:32:15.084,-0.057956418
15:32:15.088,-0.053012269
15:32:15.092,-0.049533053
15:32:15.096,-0.046877861
15:32:15.100,-0.044588903
15:32:15.104,-0.043764878
15:32:15.108,-0.043856437
15:32:15.112,-0.044131112
15:32:15.116,-0.043947995
15:32:15.120,-0.043764878
15:32:15.124,-0.045412928
15:32:15.128,-0.050540194
15:32:15.132,-0.057590185
15:32:15.136,-0.062992126
15:32:15.140,-0.065189526
15:32:15.144,-0.065189526
15:32:15.148,-0.062992126
15:32:15.152,-0.057681743
15:32:15.156,-0.050631752
15:32:15.160,-0.045687603
15:32:15.164,-0.04532137
15:32:15.168,-0.048617469
15:32:15.172,-0.052554477
15:32:15.176,-0.055575902
15:32:15.180,-0.057132393
15:32:15.184,-0.056399927
15:32:15.188,-0.053744735
15:32:15.192,-0.050631752
15:32:15.196,-0.047427211
15:32:15.200,-0.044131112
15:32:15.204,-0.039003845
15:32:15.208,-0.029023988
15:32:15.212,-0.016663615
15:32:15.216,-0.008606482
15:32:15.220,-0.007324666
15:32:15.224,-0.011261674
15:32:15.228,-0.018403223
15:32:15.232,-0.025911005
15:32:15.236,-0.031953855
15:32:15.240,-0.035799304
15:32:15.244,-0.034883721
15:32:15.248,-0.029390222
15:32:15.252,-0.022340231
15:32:15.256,-0.015473357
15:32:15.260,-0.010529207
15:32:15.264,-0.010620765
15:32:15.268,-0.01638894
15:32:15.272,-0.02453763
15:32:15.276,-0.030305805
15:32:15.280,-0.03222853
15:32:15.284,-0.03222853
15:32:15.288,-0.03277788
15:32:15.292,-0.033968138
15:32:15.296,-0.034609046
15:32:15.300,-0.032503205
15:32:15.304,-0.026643472
15:32:15.308,-0.019593481
15:32:15.312,-0.012909723
15:32:15.316,-0.005493499
15:32:15.320,0.000915583
15:32:15.324,0.004394799
15:32:15.328,0.006134408
15:32:15.332,0.007416224
15:32:15.336,0.005585058
15:32:15.340,-0.0021974
15:32:15.344,-0.013275957
15:32:15.348,-0.023072697
15:32:15.352,-0.030672038
15:32:15.356,-0.035890862
15:32:15.360,-0.037813587
15:32:15.364,-0.037447354
15:32:15.368,-0.036806446
15:32:15.372,-0.036531771
15:32:15.376,-0.036348654
15:32:15.380,-0.035249954
15:32:15.384,-0.032869438
15:32:15.388,-0.029939572
15:32:15.392,-0.027192822
15:32:15.396,-0.023805164
15:32:15.400,-0.020966856
15:32:15.404,-0.021516206
15:32:15.408,-0.026643472
15:32:15.412,-0.033968138
15:32:15.416,-0.039644754
15:32:15.420,-0.042116828
15:32:15.424,-0.042208387
15:32:15.428,-0.039370079
15:32:15.432,-0.031770738
15:32:15.436,-0.020875298
15:32:15.440,-0.010437649
15:32:15.444,-0.001739608
15:32:15.448,0.005035708
15:32:15.452,0.010437649
15:32:15.456,0.014099982
15:32:15.460,0.012451932
15:32:15.464,0.005218824
15:32:15.468,-0.002014283
15:32:15.472,-0.005859733
15:32:15.476,-0.007049991
15:32:15.480,-0.006958433
15:32:15.484,-0.005585058
15:32:15.488,-0.00164805
15:32:15.492,0.005859733
15:32:15.496,0.015381798
15:32:15.500,0.021607764
15:32:15.504,0.018677898
15:32:15.508,0.004486358
15:32:15.512,-0.015015565
15:32:15.516,-0.029023988
15:32:15.520,-0.032503205
15:32:15.524,-0.029298663
15:32:15.528,-0.025178539
15:32:15.532,-0.022706464
15:32:15.536,-0.022798022
15:32:15.540,-0.024720747
15:32:15.544,-0.028566197
15:32:15.548,-0.036531771
15:32:15.552,-0.04422267
15:32:15.556,-0.036623329
15:32:15.560,-0.004120125
15:32:15.564,0.052737594
15:32:15.568,0.1260758102911554
15:32:15.572,0.2008789598974547
15:32:15.576,0.2575535616187511
15:32:15.580,0.2788866507965574
15:32:15.584,0.2552646035524629
15:32:15.588,0.1804614539461637
15:32:15.592,0.065647317
15:32:15.596,-0.055575902
15:32:15.600,-0.163065373
15:32:15.604,-0.245376305
15:32:15.608,-0.282548984
15:32:15.612,-0.269822377
15:32:15.616,-0.227156198
15:32:15.620,-0.183116645
15:32:15.624,-0.153177074
15:32:15.628,-0.130562168
15:32:15.632,-0.104010255
15:32:15.636,-0.075627175
15:32:15.640,-0.05566746
15:32:15.644,-0.04696942
15:32:15.648,-0.042849295
15:32:15.652,-0.037630471
15:32:15.656,-0.032411646
15:32:15.660,-0.033235671
15:32:15.664,-0.040743454
15:32:15.668,-0.048434353
15:32:15.672,-0.051913569
15:32:15.676,-0.052554477
15:32:15.680,-0.052829152
15:32:15.684,-0.052188244
15:32:15.688,-0.047885003
15:32:15.692,-0.037905146
15:32:15.696,-0.026368797
15:32:15.700,-0.020600623
15:32:15.704,-0.021607764
15:32:15.708,-0.025178539
15:32:15.712,-0.029939572
15:32:15.716,-0.036898004
15:32:15.720,-0.046511628
15:32:15.724,-0.056583043
15:32:15.728,-0.064640176
15:32:15.732,-0.07040835
15:32:15.736,-0.072971983
15:32:15.740,-0.071873283
15:32:15.744,-0.069492767
15:32:15.748,-0.068119392
15:32:15.752,-0.068119392
15:32:15.756,-0.068302509
15:32:15.760,-0.067295367
15:32:15.764,-0.064365501
15:32:15.768,-0.059604468
15:32:15.772,-0.052829152
15:32:15.776,-0.043947995
15:32:15.780,-0.035616188
15:32:15.784,-0.030214246
15:32:15.788,-0.028016847
15:32:15.792,-0.027559055
15:32:15.796,-0.02563633
15:32:15.800,-0.017396081
15:32:15.804,0.000366233
15:32:15.808,0.022981139
15:32:15.812,0.039095404
15:32:15.816,0.044314228
15:32:15.820,0.043764878
15:32:15.824,0.043764878
15:32:15.828,0.046053836
15:32:15.832,0.047793444
15:32:15.836,0.041842153
15:32:15.840,0.021241531
15:32:15.844,-0.008331807
15:32:15.848,-0.033418788
15:32:15.852,-0.049258378
15:32:15.856,-0.061344076
15:32:15.860,-0.073612891
15:32:15.864,-0.085057682
15:32:15.868,-0.093114814
15:32:15.872,-0.097784289
15:32:15.876,-0.105566746
15:32:15.880,-0.123695294
15:32:15.884,-0.148507599
15:32:15.888,-0.167368614
15:32:15.892,-0.174967955
15:32:15.896,-0.177714704
15:32:15.900,-0.182017945
15:32:15.904,-0.187694561
15:32:15.908,-0.193645852
15:32:15.912,-0.200604285
15:32:15.916,-0.206647134
15:32:15.920,-0.208203626
15:32:15.924,-0.204724409
15:32:15.928,-0.199322468
15:32:15.932,-0.195843252
15:32:15.936,-0.19703351
15:32:15.940,-0.202252335
15:32:15.944,-0.208295184
15:32:15.948,-0.2139718
15:32:15.952,-0.220380883
15:32:15.956,-0.225782824
15:32:15.960,-0.225508149
15:32:15.964,-0.218000366
15:32:15.968,-0.207288042
15:32:15.972,-0.19978026
15:32:15.976,-0.197125069
15:32:15.980,-0.196117927
15:32:15.984,-0.193554294
15:32:15.988,-0.190075078
15:32:15.992,-0.187053653
15:32:15.996,-0.184306903
15:32:16.000,-0.180553012
15:32:16.004,-0.175151071
15:32:16.008,-0.168284197
15:32:16.012,-0.161600439
15:32:16.016,-0.155832265
15:32:16.020,-0.148873833
15:32:16.024,-0.137612159
15:32:16.028,-0.122779711
15:32:16.032,-0.106665446
15:32:16.036,-0.087163523
15:32:16.040,-0.058780443
15:32:16.044,-0.023438931
15:32:16.048,0.007324666
15:32:16.052,0.023530489
15:32:16.056,0.026002564
15:32:16.060,0.023255814
15:32:16.064,0.023713606
15:32:16.068,0.03277788
15:32:16.072,0.049899286
15:32:16.076,0.0676616
15:32:16.080,0.079472624
15:32:16.084,0.085423915
15:32:16.088,0.088903131
15:32:16.092,0.092382348
15:32:16.096,0.098699872
15:32:16.100,0.1117927119575169
15:32:16.104,0.1339498260391869
15:32:16.108,0.1626075810291155
15:32:16.112,0.1906244277604834
15:32:16.116,0.2108588170664713
15:32:16.120,0.2206555575901849
15:32:16.124,0.2228529573338216
15:32:16.128,0.2223036073979124
15:32:16.132,0.2217542574620033
15:32:16.136,0.2211133492034425
15:32:16.140,0.2197399743636696
15:32:16.144,0.2180003662332906
15:32:16.148,0.2168101080388207
15:32:16.152,0.2172678996520783
15:32:16.156,0.2204724409448819
15:32:16.160,0.2251419154001098
15:32:16.164,0.2298113898553378
15:32:16.168,0.2345724226332173
15:32:16.172,0.2384178721845815
15:32:16.176,0.2385094305072331
15:32:16.180,0.2332906061160959
15:32:16.184,0.2240432155282915
15:32:16.188,0.2138802417139718
15:32:16.192,0.2057315509979857
15:32:16.196,0.2011536348654092
15:32:16.200,0.1994140267350302
15:32:16.204,0.1989562351217725
15:32:16.208,0.1990477934444241
15:32:16.212,0.1989562351217725
15:32:16.216,0.1970335103460904
15:32:16.220,0.1927302691814686
15:32:16.224,0.1874198864676799
15:32:16.228,0.1816517121406335
15:32:16.232,0.1750595129097235
15:32:16.236,0.1694744552279802
15:32:16.240,0.1670939388390404
15:32:16.244,0.1668192638710859
15:32:16.248,0.1667277055484343
15:32:16.252,0.1661783556125251
15:32:16.256,0.165629006
15:32:16.260,0.1654458890313129
15:32:16.264,0.165629006
15:32:16.268,0.1661783556125251
15:32:16.272,0.1664530305804797
15:32:16.276,0.1649880974180553
15:32:16.280,0.1602270646401758
15:32:16.284,0.1537264237319172
15:32:16.288,0.1489653909540377
15:32:16.292,0.1475004577916132
15:32:16.296,0.1473173411463102
15:32:16.300,0.1464933162424464
15:32:16.304,0.1443874748214612
15:32:16.308,0.1393517670756272
15:32:16.312,0.1282732100347921
15:32:16.316,0.1112433620216077
15:32:16.320,0.092748581
15:32:16.324,0.078099249
15:32:16.328,0.069492767
15:32:16.332,0.065097967
15:32:16.336,0.060977843
15:32:16.340,0.05566746
15:32:16.344,0.050631752
15:32:16.348,0.046786303
15:32:16.352,0.045046695
15:32:16.356,0.045138253
15:32:16.360,0.042666178
15:32:16.364,0.044039553
15:32:16.368,0.067570042
15:32:16.372,0.1210401025453213
15:32:16.376,0.200604285
15:32:16.380,0.2958249404870903
15:32:16.384,0.378685222
15:32:16.388,0.4110968687053653
15:32:16.392,0.3719099066105109
15:32:16.396,0.2664347189159494
15:32:16.400,0.1195751693828969
15:32:16.404,-0.030214246
15:32:16.408,-0.150247207
15:32:16.412,-0.221021791
15:32:16.416,-0.230452298
15:32:16.420,-0.190258194
15:32:16.424,-0.130195935
15:32:16.428,-0.075810291
15:32:16.432,-0.041933712
15:32:16.436,-0.026277239
15:32:16.440,-0.015473357
15:32:16.444,-0.003753891
15:32:16.448,0.005768174
15:32:16.452,0.011170115
15:32:16.456,0.013001282
15:32:16.460,0.012726607
15:32:16.464,0.01089544
15:32:16.468,0.007141549
15:32:16.472,0.002380516
15:32:16.476,-0.000824025
15:32:16.480,-0.001831166
15:32:16.484,-0.001464933
15:32:16.488,-0.000824025
15:32:16.492,-0.000457792
15:32:16.496,-0.000457792
15:32:16.500,-0.00054935
15:32:16.504,-0.000732467
15:32:16.508,-0.000732467
15:32:16.512,-0.000274675
15:32:16.516,0.000183117
15:32:16.520,-0.00054935
15:32:16.524,-0.003753891
15:32:16.528,-0.008148691
15:32:16.532,-0.010986999
15:32:16.536,-0.011536349
15:32:16.540,-0.011353232
15:32:16.544,-0.011719465
15:32:16.548,-0.01199414
15:32:16.552,-0.010071415
15:32:16.556,-0.005127266
15:32:16.560,0.001922725
15:32:16.564,0.010437649
15:32:16.568,0.019227248
15:32:16.572,0.024354514
15:32:16.576,0.025544772
15:32:16.580,0.027101264
15:32:16.584,0.031312946
15:32:16.588,0.038179821
15:32:16.592,0.046511628
15:32:16.596,0.054660319
15:32:16.600,0.061618751
15:32:16.604,0.067295367
15:32:16.608,0.072239517
15:32:16.612,0.077092108
15:32:16.616,0.083684307
15:32:16.620,0.095861564
15:32:16.624,0.1150888115729719
15:32:16.628,0.1322102179088079
15:32:16.632,0.1333089177806262
15:32:16.636,0.1184764695110785
15:32:16.640,0.1019959714338033
15:32:16.644,0.091741439
15:32:16.648,0.084691448
15:32:16.652,0.078099249
15:32:16.656,0.072971983
15:32:16.660,0.068668742
15:32:16.664,0.058872001
15:32:16.668,0.038362937
15:32:16.672,0.012635049
15:32:16.676,-0.007690899
15:32:16.680,-0.019959714
15:32:16.684,-0.029207105
15:32:16.688,-0.04037722
15:32:16.692,-0.053195385
15:32:16.696,-0.063907709
15:32:16.700,-0.070591467
15:32:16.704,-0.075993408
15:32:16.708,-0.08350119
15:32:16.712,-0.092565464
15:32:16.716,-0.099432338
15:32:16.720,-0.102453763
15:32:16.724,-0.103460905
15:32:16.728,-0.10373558
15:32:16.732,-0.103644021
15:32:16.736,-0.103094671
15:32:16.740,-0.101995971
15:32:16.744,-0.099707013
15:32:16.748,-0.095129097
15:32:16.752,-0.089360923
15:32:16.756,-0.085240798
15:32:16.760,-0.084325215
15:32:16.764,-0.085515473
15:32:16.768,-0.086431057
15:32:16.772,-0.084783007
15:32:16.776,-0.080113532
15:32:16.780,-0.074894708
15:32:16.784,-0.072697308
15:32:16.788,-0.074070683
15:32:16.792,-0.077366783
15:32:16.796,-0.083318074
15:32:16.800,-0.092748581
15:32:16.804,-0.10208753
15:32:16.808,-0.105658304
15:32:16.812,-0.103460905
15:32:16.816,-0.100164805
15:32:16.820,-0.097601172
15:32:16.824,-0.092657023
15:32:16.828,-0.082036257
15:32:16.832,-0.068302509
15:32:16.836,-0.058047977
15:32:16.840,-0.053836294
15:32:16.844,-0.052737594
15:32:16.848,-0.052096686
15:32:16.852,-0.051822011
15:32:16.856,-0.052554477
15:32:16.860,-0.053836294
15:32:16.864,-0.054934994
15:32:16.868,-0.055484344
15:32:16.872,-0.056033693
15:32:16.876,-0.056949277
15:32:16.880,-0.057681743
15:32:16.884,-0.058139535
15:32:16.888,-0.058597326
15:32:16.892,-0.05896356
15:32:16.896,-0.058597326
15:32:16.900,-0.05676616
15:32:16.904,-0.05292071
15:32:16.908,-0.048434353
15:32:16.912,-0.044497345
15:32:16.916,-0.041659037
15:32:16.920,-0.040560337
15:32:16.924,-0.042391503
15:32:16.928,-0.046053836
15:32:16.932,-0.049716169
15:32:16.936,-0.052279802
15:32:16.940,-0.053103827
15:32:16.944,-0.051913569
15:32:16.948,-0.049624611
15:32:16.952,-0.047427211
15:32:16.956,-0.046328511
15:32:16.960,-0.046511628
15:32:16.964,-0.047610328
15:32:16.968,-0.048251236
15:32:16.972,-0.047335653
15:32:16.976,-0.044680461
15:32:16.980,-0.040835012
15:32:16.984,-0.035158396
15:32:16.988,-0.02618568
15:32:16.992,-0.01583959
15:32:16.996,-0.009522066
15:32:17.000,-0.009247391
15:32:17.004,-0.011811024
15:32:17.008,-0.014008423
15:32:17.012,-0.014832448
15:32:17.016,-0.014924007
15:32:17.020,-0.014924007
15:32:17.024,-0.01529024
15:32:17.028,-0.01583959
15:32:17.032,-0.016572056
15:32:17.036,-0.018494781
15:32:17.040,-0.022340231
15:32:17.044,-0.026826589
15:32:17.048,-0.02893243
15:32:17.052,-0.02838308
15:32:17.056,-0.026643472
15:32:17.060,-0.024354514
15:32:17.064,-0.022523347
15:32:17.068,-0.022523347
15:32:17.072,-0.024995422
15:32:17.076,-0.029390222
15:32:17.080,-0.034609046
15:32:17.084,-0.039370079
15:32:17.088,-0.043215528
15:32:17.092,-0.045687603
15:32:17.096,-0.044955136
15:32:17.100,-0.038637612
15:32:17.104,-0.028474638
15:32:17.108,-0.019776598
15:32:17.112,-0.01474089
15:32:17.116,-0.012085699
15:32:17.120,-0.010712324
15:32:17.124,-0.009705182
15:32:17.128,-0.007690899
15:32:17.132,-0.004394799
15:32:17.136,0.000366233
15:32:17.140,0.006958433
15:32:17.144,0.01474089
15:32:17.148,0.022981139
15:32:17.152,0.03277788
15:32:17.156,0.04257462
15:32:17.160,0.045962278
15:32:17.164,0.037630471
15:32:17.168,0.019685039
15:32:17.172,0.000732467
15:32:17.176,-0.01199414
15:32:17.180,-0.017121406
15:32:17.184,-0.016022706
15:32:17.188,-0.010437649
15:32:17.192,-0.003479216
15:32:17.196,0
15:32:17.200,-0.002288958
15:32:17.204,-0.007874016
15:32:17.208,-0.012726607
15:32:17.212,-0.022889581
15:32:17.216,-0.043215528
15:32:17.220,-0.058505768
15:32:17.224,-0.051638894
15:32:17.228,-0.018952573
15:32:17.232,0.04037722
15:32:17.236,0.1236952939022157
15:32:17.240,0.2151620582310932
15:32:17.244,0.288683391
15:32:17.248,0.3239333455411097
15:32:17.252,0.3101995971433803
15:32:17.256,0.2368613806995055
15:32:17.260,0.1101446621497894
15:32:17.264,-0.035799304
15:32:17.268,-0.162058231
15:32:17.272,-0.242263322
15:32:17.276,-0.262863944
15:32:17.280,-0.229628273
15:32:17.284,-0.172770555
15:32:17.288,-0.12497711
15:32:17.292,-0.100805713
15:32:17.296,-0.09659403
15:32:17.300,-0.094945981
15:32:17.304,-0.081761582
15:32:17.308,-0.061069401
15:32:17.312,-0.043856437
15:32:17.316,-0.035066838
15:32:17.320,-0.033693463
15:32:17.324,-0.035616188
15:32:17.328,-0.037447354
15:32:17.332,-0.038820729
15:32:17.336,-0.040102545
15:32:17.340,-0.041018129
15:32:17.344,-0.039919429
15:32:17.348,-0.035707746
15:32:17.352,-0.030214246
15:32:17.356,-0.026826589
15:32:17.360,-0.025911005
15:32:17.364,-0.023347372
15:32:17.368,-0.015107123
15:32:17.372,-0.003204541
15:32:17.376,0.005310383
15:32:17.380,0.005676616
15:32:17.384,-0.001190258
15:32:17.388,-0.01254349
15:32:17.392,-0.027101264
15:32:17.396,-0.042391503
15:32:17.400,-0.049624611
15:32:17.404,-0.043581762
15:32:17.408,-0.029573338
15:32:17.412,-0.015564915
15:32:17.416,-0.004852591
15:32:17.420,0.003479216
15:32:17.424,0.010529207
15:32:17.428,0.015931148
15:32:17.432,0.021058414
15:32:17.436,0.026643472
15:32:17.440,0.03167918
15:32:17.444,0.034883721
15:32:17.448,0.036348654
15:32:17.452,0.039461637
15:32:17.456,0.049258378
15:32:17.460,0.069126534
15:32:17.464,0.093938839
15:32:17.468,0.1142647866691082
15:32:17.472,0.1268082768723677
15:32:17.476,0.1347738509430507
15:32:17.480,0.1418238417872184
15:32:17.484,0.1493316242446438
15:32:17.488,0.1587621314777513
15:32:17.492,0.168925105
15:32:17.496,0.1729536714887383
15:32:17.500,0.1646218641274492
15:32:17.504,0.1455777330159311
15:32:17.508,0.1248855520966855
15:32:17.512,0.1117011536348654
15:32:17.516,0.1076725874381981
15:32:17.520,0.1062992125984252
15:32:17.524,0.10263688
15:32:17.528,0.097509614
15:32:17.532,0.092016114
15:32:17.536,0.084233657
15:32:17.540,0.071690167
15:32:17.544,0.053378502
15:32:17.548,0.033144113
15:32:17.552,0.019868156
15:32:17.556,0.015748031
15:32:17.560,0.012635049
15:32:17.564,0.002655191
15:32:17.568,-0.012085699
15:32:17.572,-0.023255814
15:32:17.576,-0.026277239
15:32:17.580,-0.024446072
15:32:17.584,-0.022065556
15:32:17.588,-0.019776598
15:32:17.592,-0.014557773
15:32:17.596,-0.005585058
15:32:17.600,0.001373375
15:32:17.604,-0.001281817
15:32:17.608,-0.012451932
15:32:17.612,-0.022157114
15:32:17.616,-0.024079839
15:32:17.620,-0.019593481
15:32:17.624,-0.013825307
15:32:17.628,-0.008881157
15:32:17.632,-0.003753891
15:32:17.636,0.000457792
15:32:17.640,0.001373375
15:32:17.644,-0.001373375
15:32:17.648,-0.005585058
15:32:17.652,-0.008606482
15:32:17.656,-0.009430507
15:32:17.660,-0.009705182
15:32:17.664,-0.010712324
15:32:17.668,-0.01254349
15:32:17.672,-0.013459073
15:32:17.676,-0.010712324
15:32:17.680,-0.004120125
15:32:17.684,0.0032961
15:32:17.688,0.010071415
15:32:17.692,0.017396081
15:32:17.696,0.024354514
15:32:17.700,0.028474638
15:32:17.704,0.030397363
15:32:17.708,0.031038271
15:32:17.712,0.028474638
15:32:17.716,0.019685039
15:32:17.720,0.006683758
15:32:17.724,-0.00384545
15:32:17.728,-0.008698041
15:32:17.732,-0.009522066
15:32:17.736,-0.008972716
15:32:17.740,-0.008057132
15:32:17.744,-0.005951291
15:32:17.748,-0.001739608
15:32:17.752,0.004028566
15:32:17.756,0.008881157
15:32:17.760,0.01144479
15:32:17.764,0.012085699
15:32:17.768,0.011078557
15:32:17.772,0.007874016
15:32:17.776,0.003021425
15:32:17.780,-0.001464933
15:32:17.784,-0.005951291
15:32:17.788,-0.012726607
15:32:17.792,-0.019410364
15:32:17.796,-0.022157114
15:32:17.800,-0.020966856
15:32:17.804,-0.018586339
15:32:17.808,-0.016846731
15:32:17.812,-0.016297381
15:32:17.816,-0.016205823
15:32:17.820,-0.01583959
15:32:17.824,-0.015564915
15:32:17.828,-0.015564915
15:32:17.832,-0.015198682
15:32:17.836,-0.013184398
15:32:17.840,-0.008423366
15:32:17.844,-0.002105841
15:32:17.848,0.002288958
15:32:17.852,0.003753891
15:32:17.856,0.003570775
15:32:17.860,0.003387658
15:32:17.864,0.003662333
15:32:17.868,0.003662333
15:32:17.872,0.001373375
15:32:17.876,-0.003570775
15:32:17.880,-0.009247391
15:32:17.884,-0.014466215
15:32:17.888,-0.020325948
15:32:17.892,-0.025727889
15:32:17.896,-0.028199963
15:32:17.900,-0.027101264
15:32:17.904,-0.022981139
15:32:17.908,-0.017762315
15:32:17.912,-0.014008423
15:32:17.916,-0.012818165
15:32:17.920,-0.013275957
15:32:17.924,-0.01419154
15:32:17.928,-0.015107123
15:32:17.932,-0.01638894
15:32:17.936,-0.018586339
15:32:17.940,-0.020783739
15:32:17.944,-0.022614906
15:32:17.948,-0.024171397
15:32:17.952,-0.025544772
15:32:17.956,-0.026094122
15:32:17.960,-0.026368797
15:32:17.964,-0.027375938
15:32:17.968,-0.029023988
15:32:17.972,-0.031221388
15:32:17.976,-0.033693463
15:32:17.980,-0.035799304
15:32:17.984,-0.037722029
15:32:17.988,-0.039736312
15:32:17.992,-0.041750595
15:32:17.996,-0.043215528
15:32:18.000,-0.044497345
15:32:18.004,-0.045046695
15:32:18.008,-0.041567478
15:32:18.012,-0.030763596
15:32:18.016,-0.015107123
15:32:18.020,-0.0010987
15:32:18.024,0.009796741
15:32:18.028,0.021516206
15:32:18.032,0.034059696
15:32:18.036,0.043307087
15:32:18.040,0.047885003
15:32:18.044,0.050357077
15:32:18.048,0.051272661
15:32:18.052,0.046328511
15:32:18.056,0.031862296
15:32:18.060,0.012635049
15:32:18.064,-0.001281817
15:32:18.068,-0.006592199
15:32:18.072,-0.009064274
15:32:18.076,-0.014008423
15:32:18.080,-0.020783739
15:32:18.084,-0.025911005
15:32:18.088,-0.030305805
15:32:18.092,-0.038912287
15:32:18.096,-0.050173961
15:32:18.100,-0.05456876
15:32:18.104,-0.051181102
15:32:18.108,-0.046236953
15:32:18.112,-0.037538912
15:32:18.116,-0.016663615
15:32:18.120,0.027467497
15:32:18.124,0.1013550631752426
15:32:18.128,0.1954770188610144
15:32:18.132,0.2836476835744369
15:32:18.136,0.3354696941952023
15:32:18.140,0.3324482695477019
15:32:18.144,0.2644204358176158
15:32:18.148,0.1400842336568394
15:32:18.152,-0.004394799
15:32:18.156,-0.136330342
15:32:18.160,-0.232375023
15:32:18.164,-0.270371727
15:32:18.168,-0.249954221
15:32:18.172,-0.200054935
15:32:18.176,-0.156930965
15:32:18.180,-0.133766709
15:32:18.184,-0.117652445
15:32:18.188,-0.09769273
15:32:18.192,-0.078190808
15:32:18.196,-0.063999268
15:32:18.200,-0.052829152
15:32:18.204,-0.039736312
15:32:18.208,-0.02453763
15:32:18.212,-0.010986999
15:32:18.216,-0.003479216
15:32:18.220,-0.005401941
15:32:18.224,-0.016114265
15:32:18.228,-0.02948178
15:32:18.232,-0.037081121
15:32:18.236,-0.037264237
15:32:18.240,-0.034792163
15:32:18.244,-0.033418788
15:32:18.248,-0.032869438
15:32:18.252,-0.031770738
15:32:18.256,-0.029664897
15:32:18.260,-0.026368797
15:32:18.264,-0.022431789
15:32:18.268,-0.019593481
15:32:18.272,-0.018220106
15:32:18.276,-0.017945431
15:32:18.280,-0.017762315
15:32:18.284,-0.017396081
15:32:18.288,-0.016572056
15:32:18.292,-0.015748031
15:32:18.296,-0.015473357
15:32:18.300,-0.016205823
15:32:18.304,-0.01638894
15:32:18.308,-0.011811024
15:32:18.312,0.001281817
15:32:18.316,0.018952573
15:32:18.320,0.032960996
15:32:18.324,0.04312397
15:32:18.328,0.056125252
15:32:18.332,0.070866142
15:32:18.336,0.079014832
15:32:18.340,0.078190808
15:32:18.344,0.0731551
15:32:18.348,0.069126534
15:32:18.352,0.070499908
15:32:18.356,0.078740157
15:32:18.360,0.090184948
15:32:18.364,0.1012635048525911
15:32:18.368,0.1138069950558505
15:32:18.372,0.1328511261673686
15:32:18.376,0.1560153817982054
15:32:18.380,0.1729536714887383
15:32:18.384,0.1792711957516938
15:32:18.388,0.179820546
15:32:18.392,0.1800952206555575
15:32:18.396,0.1791796374290423
15:32:18.400,0.1708478300677531
15:32:18.404,0.1501556491485076
15:32:18.408,0.1238784105475187
15:32:18.412,0.1038271378868339
15:32:18.416,0.090368064
15:32:18.420,0.074436916
15:32:18.424,0.053836294
15:32:18.428,0.035799304
15:32:18.432,0.025270097
15:32:18.436,0.017396081
15:32:18.440,0.005035708
15:32:18.444,-0.012635049
15:32:18.448,-0.029939572
15:32:18.452,-0.040102545
15:32:18.456,-0.042849295
15:32:18.460,-0.043307087
15:32:18.464,-0.04532137
15:32:18.468,-0.047427211
15:32:18.472,-0.046786303
15:32:18.476,-0.044131112
15:32:18.480,-0.042116828
15:32:18.484,-0.04092657
15:32:18.488,-0.039003845
15:32:18.492,-0.037172679
15:32:18.496,-0.039644754
15:32:18.500,-0.047976561
15:32:18.504,-0.057590185
15:32:18.508,-0.063816151
15:32:18.512,-0.066288226
15:32:18.516,-0.067295367
15:32:18.520,-0.068119392
15:32:18.524,-0.069034975
15:32:18.528,-0.069767442
15:32:18.532,-0.069767442
15:32:18.536,-0.069034975
15:32:18.540,-0.068027834
15:32:18.544,-0.066471342
15:32:18.548,-0.064640176
15:32:18.552,-0.062900568
15:32:18.556,-0.061801868
15:32:18.560,-0.06116096
15:32:18.564,-0.059787585
15:32:18.568,-0.055850577
15:32:18.572,-0.048892144
15:32:18.576,-0.041384362
15:32:18.580,-0.035158396
15:32:18.584,-0.029939572
15:32:18.588,-0.02728438
15:32:18.592,-0.028199963
15:32:18.596,-0.030855155
15:32:18.600,-0.033601904
15:32:18.604,-0.035249954
15:32:18.608,-0.035799304
15:32:18.612,-0.036440212
15:32:18.616,-0.038820729
15:32:18.620,-0.042666178
15:32:18.624,-0.045687603
15:32:18.628,-0.044588903
15:32:18.632,-0.037630471
15:32:18.636,-0.02728438
15:32:18.640,-0.018769456
15:32:18.644,-0.01474089
15:32:18.648,-0.01364219
15:32:18.652,-0.013825307
15:32:18.656,-0.01474089
15:32:18.660,-0.017396081
15:32:18.664,-0.023255814
15:32:18.668,-0.030946713
15:32:18.672,-0.036531771
15:32:18.676,-0.03872917
15:32:18.680,-0.038454496
15:32:18.684,-0.036806446
15:32:18.688,-0.034059696
15:32:18.692,-0.030122688
15:32:18.696,-0.025270097
15:32:18.700,-0.019501923
15:32:18.704,-0.013275957
15:32:18.708,-0.008972716
15:32:18.712,-0.009247391
15:32:18.716,-0.014557773
15:32:18.720,-0.022157114
15:32:18.724,-0.027559055
15:32:18.728,-0.029664897
15:32:18.732,-0.031221388
15:32:18.736,-0.035799304
15:32:18.740,-0.043856437
15:32:18.744,-0.051638894
15:32:18.748,-0.052279802
15:32:18.752,-0.041659037
15:32:18.756,-0.024262956
15:32:18.760,-0.006958433
15:32:18.764,0.007782457
15:32:18.768,0.017396081
15:32:18.772,0.018494781
15:32:18.776,0.011353232
15:32:18.780,0.001007142
15:32:18.784,-0.006958433
15:32:18.788,-0.010986999
15:32:18.792,-0.012451932
15:32:18.796,-0.013459073
15:32:18.800,-0.015107123
15:32:18.804,-0.016755173
15:32:18.808,-0.01748764
15:32:18.812,-0.017304523
15:32:18.816,-0.016846731
15:32:18.820,-0.016663615
15:32:18.824,-0.016572056
15:32:18.828,-0.01583959
15:32:18.832,-0.013733748
15:32:18.836,-0.010986999
15:32:18.840,-0.008240249
15:32:18.844,-0.007324666
15:32:18.848,-0.009613624
15:32:18.852,-0.01364219
15:32:18.856,-0.015107123
15:32:18.860,-0.013459073
15:32:18.864,-0.010620765
15:32:18.868,-0.008057132
15:32:18.872,-0.006592199
15:32:18.876,-0.006225966
15:32:18.880,-0.006225966
15:32:18.884,-0.006409083
15:32:18.888,-0.006958433
15:32:18.892,-0.007690899
15:32:18.896,-0.007416224
15:32:18.900,-0.004211683
15:32:18.904,0.002655191
15:32:18.908,0.011719465
15:32:18.912,0.021424648
15:32:18.916,0.030855155
15:32:18.920,0.037630471
15:32:18.924,0.04092657
15:32:18.928,0.043398645
15:32:18.932,0.048342794
15:32:18.936,0.053653177
15:32:18.940,0.053744735
15:32:18.944,0.046145395
15:32:18.948,0.033144113
15:32:18.952,0.018128548
15:32:18.956,0.004669474
15:32:18.960,-0.004211683
15:32:18.964,-0.009796741
15:32:18.968,-0.015931148
15:32:18.972,-0.022798022
15:32:18.976,-0.027375938
15:32:18.980,-0.030305805
15:32:18.984,-0.037905146
15:32:18.988,-0.051913569
15:32:18.992,-0.059329793
15:32:18.996,-0.04037722
15:32:19.000,0.012268815
15:32:19.004,0.090093389
15:32:19.008,0.1787218458157846
15:32:19.012,0.2592931697491302
15:32:19.016,0.3101080388207288
15:32:19.020,0.3206372459256546
15:32:19.024,0.2921626075810291
15:32:19.028,0.2238600988829884
15:32:19.032,0.1193920527375938
15:32:19.036,-0.001373375
15:32:19.040,-0.119208936
15:32:19.044,-0.218000366
15:32:19.048,-0.272111335
15:32:19.052,-0.265610694
15:32:19.056,-0.214338033
15:32:19.060,-0.145028383
15:32:19.064,-0.079289507
15:32:19.068,-0.039461637
15:32:19.072,-0.03277788
15:32:19.076,-0.041292804
15:32:19.080,-0.047335653
15:32:19.084,-0.048617469
15:32:19.088,-0.047793444
15:32:19.092,-0.043856437
15:32:19.096,-0.033785021
15:32:19.100,-0.019959714
15:32:19.104,-0.009796741
15:32:19.108,-0.006592199
15:32:19.112,-0.007141549
15:32:19.116,-0.007049991
15:32:19.120,-0.004486358
15:32:19.124,-0.000732467
15:32:19.128,0.001922725
15:32:19.132,0.00274675
15:32:19.136,0.002380516
15:32:19.140,0.001556491
15:32:19.144,0.001007142
15:32:19.148,0.0021974
15:32:19.152,0.006409083
15:32:19.156,0.012268815
15:32:19.160,0.017029848
15:32:19.164,0.019868156
15:32:19.168,0.021424648
15:32:19.172,0.022065556
15:32:19.176,0.022340231
15:32:19.180,0.023530489
15:32:19.184,0.026643472
15:32:19.188,0.031038271
15:32:19.192,0.036531771
15:32:19.196,0.043490203
15:32:19.200,0.051181102
15:32:19.204,0.05896356
15:32:19.208,0.066746017
15:32:19.212,0.073521333
15:32:19.216,0.079289507
15:32:19.220,0.084783007
15:32:19.224,0.090276506
15:32:19.228,0.097234939
15:32:19.232,0.1062076542757736
15:32:19.236,0.1165537447353964
15:32:19.240,0.1274491851309284
15:32:19.244,0.138802417
15:32:19.248,0.1494231825672953
15:32:19.252,0.1566562900567661
15:32:19.256,0.1605932979307819
15:32:19.260,0.1629738143197216
15:32:19.264,0.1648965390954037
15:32:19.268,0.1682841970335103
15:32:19.272,0.1748763962644204
15:32:19.276,0.1823841787218458
15:32:19.280,0.1836659952389672
15:32:19.284,0.17359458
15:32:19.288,0.1565647317341146
15:32:19.292,0.1413660501739608
15:32:19.296,0.1283647683574437
15:32:19.300,0.1099615455044863
15:32:19.304,0.08514924
15:32:19.308,0.063083684
15:32:19.312,0.049990844
15:32:19.316,0.04202527
15:32:19.320,0.034242813
15:32:19.324,0.025819447
15:32:19.328,0.016663615
15:32:19.332,0.004486358
15:32:19.336,-0.012085699
15:32:19.340,-0.03003113
15:32:19.344,-0.042391503
15:32:19.348,-0.046603186
15:32:19.352,-0.045412928
15:32:19.356,-0.04147592
15:32:19.360,-0.037081121
15:32:19.364,-0.033144113
15:32:19.368,-0.029298663
15:32:19.372,-0.026002564
15:32:19.376,-0.025819447
15:32:19.380,-0.031770738
15:32:19.384,-0.044314228
15:32:19.388,-0.058872001
15:32:19.392,-0.068851859
15:32:19.396,-0.071873283
15:32:19.400,-0.070591467
15:32:19.404,-0.068485625
15:32:19.408,-0.066837576
15:32:19.412,-0.064731734
15:32:19.416,-0.061252518
15:32:19.420,-0.057407068
15:32:19.424,-0.05347006
15:32:19.428,-0.048617469
15:32:19.432,-0.044588903
15:32:19.436,-0.045779161
15:32:19.440,-0.05456876
15:32:19.444,-0.067386925
15:32:19.448,-0.077183666
15:32:19.452,-0.079564182
15:32:19.456,-0.0753525
15:32:19.460,-0.068668742
15:32:19.464,-0.063816151
15:32:19.468,-0.061527193
15:32:19.472,-0.058780443
15:32:19.476,-0.053836294
15:32:19.480,-0.047427211
15:32:19.484,-0.041109687
15:32:19.488,-0.035799304
15:32:19.492,-0.032594763
15:32:19.496,-0.03222853
15:32:19.500,-0.034334371
15:32:19.504,-0.038637612
15:32:19.508,-0.046053836
15:32:19.512,-0.055392785
15:32:19.516,-0.062717451
15:32:19.520,-0.065464201
15:32:19.524,-0.065464201
15:32:19.528,-0.064548617
15:32:19.532,-0.062351218
15:32:19.536,-0.058688885
15:32:19.540,-0.055484344
15:32:19.544,-0.054110969
15:32:19.548,-0.05292071
15:32:19.552,-0.049075261
15:32:19.556,-0.043215528
15:32:19.560,-0.039919429
15:32:19.564,-0.041109687
15:32:19.568,-0.043856437
15:32:19.572,-0.045046695
15:32:19.576,-0.04477202
15:32:19.580,-0.043947995
15:32:19.584,-0.043032412
15:32:19.588,-0.041750595
15:32:19.592,-0.04092657
15:32:19.596,-0.042483062
15:32:19.600,-0.048709028
15:32:19.604,-0.058139535
15:32:19.608,-0.065830434
15:32:19.612,-0.067386925
15:32:19.616,-0.062717451
15:32:19.620,-0.05566746
15:32:19.624,-0.048892144
15:32:19.628,-0.04147592
15:32:19.632,-0.035066838
15:32:19.636,-0.033144113
15:32:19.640,-0.035707746
15:32:19.644,-0.039919429
15:32:19.648,-0.042849295
15:32:19.652,-0.043307087
15:32:19.656,-0.04202527
15:32:19.660,-0.040468779
15:32:19.664,-0.039003845
15:32:19.668,-0.037538912
15:32:19.672,-0.036806446
15:32:19.676,-0.037996704
15:32:19.680,-0.040468779
15:32:19.684,-0.039919429
15:32:19.688,-0.031496063
15:32:19.692,-0.01803699
15:32:19.696,-0.007049991
15:32:19.700,-0.001556491
15:32:19.704,0.002105841
15:32:19.708,0.006317524
15:32:19.712,0.008240249
15:32:19.716,0.005768174
15:32:19.720,0.00164805
15:32:19.724,0
15:32:19.728,0.001281817
15:32:19.732,0.004394799
15:32:19.736,0.008881157
15:32:19.740,0.013550632
15:32:19.744,0.017945431
15:32:19.748,0.023255814
15:32:19.752,0.027742172
15:32:19.756,0.02728438
15:32:19.760,0.020234389
15:32:19.764,0.010254532
15:32:19.768,0.003112983
15:32:19.772,0.000732467
15:32:19.776,0.000366233
15:32:19.780,-0.000366233
15:32:19.784,-0.001373375
15:32:19.788,-0.001556491
15:32:19.792,-0.003387658
15:32:19.796,-0.013184398
15:32:19.800,-0.030488921
15:32:19.804,-0.041842153
15:32:19.808,-0.038271379
15:32:19.812,-0.026002564
15:32:19.816,-0.007965574
15:32:19.820,0.01748764
15:32:19.824,0.054477202
15:32:19.828,0.1118842702801684
15:32:19.832,0.1880607947262406
15:32:19.836,0.2653360190441311
15:32:19.840,0.3167002380516389
15:32:19.844,0.3184398461820179
15:32:19.848,0.2586522614905694
15:32:19.852,0.1407251419154001
15:32:19.856,-0.002929866
15:32:19.860,-0.133125801
15:32:19.864,-0.228071782
15:32:19.868,-0.27073796
15:32:19.872,-0.253982787
15:32:19.876,-0.198864677
15:32:19.880,-0.141732283
15:32:19.884,-0.103644021
15:32:19.888,-0.078099249
15:32:19.892,-0.052737594
15:32:19.896,-0.028108405
15:32:19.900,-0.010254532
15:32:19.904,0.000732467
15:32:19.908,0.010803882
15:32:19.912,0.019501923
15:32:19.916,0.020966856
15:32:19.920,0.013550632
15:32:19.924,0.002563633
15:32:19.928,-0.005218824
15:32:19.932,-0.007782457
15:32:19.936,-0.007874016
15:32:19.940,-0.008514924
15:32:19.944,-0.010071415
15:32:19.948,-0.010986999
15:32:19.952,-0.008057132
15:32:19.956,-9.16E-05
15:32:19.960,0.009430507
15:32:19.964,0.018677898
15:32:19.968,0.02838308
15:32:19.972,0.036257096
15:32:19.976,0.038546054
15:32:19.980,0.036989562
15:32:19.984,0.035066838
15:32:19.988,0.034425929
15:32:19.992,0.034517488
15:32:19.996,0.033510346
15:32:20.000,0.029939572
15:32:20.004,0.024629189
15:32:20.008,0.020509064
15:32:20.012,0.019593481
15:32:20.016,0.021790881
15:32:20.020,0.025819447
15:32:20.024,0.03112983
15:32:20.028,0.037538912
15:32:20.032,0.042757737
15:32:20.036,0.046328511
15:32:20.040,0.050997986
15:32:20.044,0.059146676
15:32:20.048,0.069218092
15:32:20.052,0.078099249
15:32:20.056,0.08569859
15:32:20.060,0.094854422
15:32:20.064,0.1093206372459256
15:32:20.068,0.1281816517121406
15:32:20.072,0.1439296832082036
15:32:20.076,0.1527192821827504
15:32:20.080,0.1583958981871452
15:32:20.084,0.1650796557407068
15:32:20.088,0.1708478300677531
15:32:20.092,0.1703900384544955
15:32:20.096,0.1613257645119941
15:32:20.100,0.1461270829518403
15:32:20.104,0.1312030763596411
15:32:20.108,0.1228712689983519
15:32:20.112,0.1209485442226698
15:32:20.116,0.1167368613806995
15:32:20.120,0.10263688
15:32:20.124,0.080845999
15:32:20.128,0.05786486
15:32:20.132,0.033327229
15:32:20.136,0.006958433
15:32:20.140,-0.015381798
15:32:20.144,-0.032045413
15:32:20.148,-0.047335653
15:32:20.152,-0.060520051
15:32:20.156,-0.065738876
15:32:20.160,-0.062992126
15:32:20.164,-0.057223952
15:32:20.168,-0.051547336
15:32:20.172,-0.048617469
15:32:20.176,-0.049258378
15:32:20.180,-0.052096686
15:32:20.184,-0.055759018
15:32:20.188,-0.058780443
15:32:20.192,-0.059787585
15:32:20.196,-0.058597326
15:32:20.200,-0.056491485
15:32:20.204,-0.055850577
15:32:20.208,-0.059787585
15:32:20.212,-0.068851859
15:32:20.216,-0.078831716
15:32:20.220,-0.086614173
15:32:20.224,-0.093297931
15:32:20.228,-0.096410914
15:32:20.232,-0.093206372
15:32:20.236,-0.086888848
15:32:20.240,-0.081761582
15:32:20.244,-0.079655741
15:32:20.248,-0.079472624
15:32:20.252,-0.078282366
15:32:20.256,-0.074162241
15:32:20.260,-0.068394067
15:32:20.264,-0.064365501
15:32:20.268,-0.062809009
15:32:20.272,-0.060794726
15:32:20.276,-0.056583043
15:32:20.280,-0.051455777
15:32:20.284,-0.046694745
15:32:20.288,-0.041384362
15:32:20.292,-0.036806446
15:32:20.296,-0.034425929
15:32:20.300,-0.033327229
15:32:20.304,-0.031587621
15:32:20.308,-0.029023988
15:32:20.312,-0.02673503
15:32:20.316,-0.025361655
15:32:20.320,-0.024903864
15:32:20.324,-0.025727889
15:32:20.328,-0.027925288
15:32:20.332,-0.03058048
15:32:20.336,-0.032411646
15:32:20.340,-0.035249954
15:32:20.344,-0.041933712
15:32:20.348,-0.048892144
15:32:20.352,-0.049807728
15:32:20.356,-0.042757737
15:32:20.360,-0.032136971
15:32:20.364,-0.024446072
15:32:20.368,-0.021882439
15:32:20.372,-0.021973997
15:32:20.376,-0.021882439
15:32:20.380,-0.021241531
15:32:20.384,-0.020417506
15:32:20.388,-0.019593481
15:32:20.392,-0.018861014
15:32:20.396,-0.018311665
15:32:20.400,-0.017029848
15:32:20.404,-0.01474089
15:32:20.408,-0.013459073
15:32:20.412,-0.015381798
15:32:20.416,-0.019593481
15:32:20.420,-0.02453763
15:32:20.424,-0.03003113
15:32:20.428,-0.033144113
15:32:20.432,-0.029939572
15:32:20.436,-0.019868156
15:32:20.440,-0.007324666
15:32:20.444,0.000915583
15:32:20.448,0.001831166
15:32:20.452,-0.0032961
15:32:20.456,-0.011719465
15:32:20.460,-0.023255814
15:32:20.464,-0.037355796
15:32:20.468,-0.048068119
15:32:20.472,-0.050082402
15:32:20.476,-0.044131112
15:32:20.480,-0.035616188
15:32:20.484,-0.029848013
15:32:20.488,-0.028840872
15:32:20.492,-0.030763596
15:32:20.496,-0.033144113
15:32:20.500,-0.034883721
15:32:20.504,-0.036623329
15:32:20.508,-0.038088262
15:32:20.512,-0.039003845
15:32:20.516,-0.039919429
15:32:20.520,-0.041109687
15:32:20.524,-0.042391503
15:32:20.528,-0.04312397
15:32:20.532,-0.042208387
15:32:20.536,-0.037722029
15:32:20.540,-0.027467497
15:32:20.544,-0.009064274
15:32:20.548,0.013367515
15:32:20.552,0.028840872
15:32:20.556,0.032320088
15:32:20.560,0.028474638
15:32:20.564,0.022706464
15:32:20.568,0.018494781
15:32:20.572,0.019410364
15:32:20.576,0.027192822
15:32:20.580,0.039186962
15:32:20.584,0.048617469
15:32:20.588,0.049441494
15:32:20.592,0.040835012
15:32:20.596,0.02893243
15:32:20.600,0.01803699
15:32:20.604,0.007233107
15:32:20.608,-0.002105841
15:32:20.612,-0.006958433
15:32:20.616,-0.008057132
15:32:20.620,-0.007599341
15:32:20.624,-0.006775316
15:32:20.628,-0.007874016
15:32:20.632,-0.013550632
15:32:20.636,-0.024812305
15:32:20.640,-0.038546054
15:32:20.644,-0.048251236
15:32:20.648,-0.049990844
15:32:20.652,-0.041292804
15:32:20.656,-0.016114265
15:32:20.660,0.030946713
15:32:20.664,0.1008972715619849
15:32:20.668,0.1853140450466947
15:32:20.672,0.2612158945248123
15:32:20.676,0.3069950558505768
15:32:20.680,0.31550998
15:32:20.684,0.2792528840871635
15:32:20.688,0.1932796191173777
15:32:20.692,0.072880425
15:32:20.696,-0.055942135
15:32:20.700,-0.172862113
15:32:20.704,-0.253708112
15:32:20.708,-0.275590551
15:32:20.712,-0.242537997
15:32:20.716,-0.180644571
15:32:20.720,-0.118934261
15:32:20.724,-0.081120674
15:32:20.728,-0.069859
15:32:20.732,-0.066105109
15:32:20.736,-0.053836294
15:32:20.740,-0.034242813
15:32:20.744,-0.019135689
15:32:20.748,-0.014466215
15:32:20.752,-0.016480498
15:32:20.756,-0.019501923
15:32:20.760,-0.021516206
15:32:20.764,-0.023072697
15:32:20.768,-0.024354514
15:32:20.772,-0.025178539
15:32:20.776,-0.02563633
15:32:20.780,-0.025544772
15:32:20.784,-0.024079839
15:32:20.788,-0.020509064
15:32:20.792,-0.016480498
15:32:20.796,-0.013275957
15:32:20.800,-0.009705182
15:32:20.804,-0.004761033
15:32:20.808,0.001190258
15:32:20.812,0.006500641
15:32:20.816,0.011261674
15:32:20.820,0.01693829
15:32:20.824,0.021790881
15:32:20.828,0.020692181
15:32:20.832,0.010712324
15:32:20.836,-0.004028566
15:32:20.840,-0.01364219
15:32:20.844,-0.007416224
15:32:20.848,0.016846731
15:32:20.852,0.047976561
15:32:20.856,0.072422633
15:32:20.860,0.087987548
15:32:20.864,0.096319355
15:32:20.868,0.098058964
15:32:20.872,0.096319355
15:32:20.876,0.094213514
15:32:20.880,0.094213514
15:32:20.884,0.096410914
15:32:20.888,0.099615455
15:32:20.892,0.1033693462735762
15:32:20.896,0.1076725874381981
15:32:20.900,0.1127082951840322
15:32:20.904,0.121497894
15:32:20.908,0.1377037172678996
15:32:20.912,0.1575718732832814
15:32:20.916,0.1745101629738143
15:32:20.920,0.1871452114997253
15:32:20.924,0.1947445522798022
15:32:20.928,0.1936458524079838
15:32:20.932,0.1828419703351034
15:32:20.936,0.1681010803882072
15:32:20.940,0.1580296648965391
15:32:20.944,0.1549166819263871
15:32:20.948,0.1533601904413111
15:32:20.952,0.1477751327595678
15:32:20.956,0.1377037172678996
15:32:20.960,0.1241530855154733
15:32:20.964,0.1049258377586522
15:32:20.968,0.080571324
15:32:20.972,0.056033693
15:32:20.976,0.033510346
15:32:20.980,0.014374657
15:32:20.984,0.001922725
15:32:20.988,-0.003021425
15:32:20.992,-0.004852591
15:32:20.996,-0.007416224
15:32:21.000,-0.012635049
15:32:21.004,-0.020417506
15:32:21.008,-0.027101264
15:32:21.012,-0.029848013
15:32:21.016,-0.029848013
15:32:21.020,-0.02893243
15:32:21.024,-0.027467497
15:32:21.028,-0.024995422
15:32:21.032,-0.022431789
15:32:21.036,-0.022340231
15:32:21.040,-0.02508698
15:32:21.044,-0.028199963
15:32:21.048,-0.030763596
15:32:21.052,-0.033785021
15:32:21.056,-0.037355796
15:32:21.060,-0.041201245
15:32:21.064,-0.045229811
15:32:21.068,-0.048068119
15:32:21.072,-0.049441494
15:32:21.076,-0.052096686
15:32:21.080,-0.058322652
15:32:21.084,-0.063999268
15:32:21.088,-0.060245376
15:32:21.092,-0.046603186
15:32:21.096,-0.033144113
15:32:21.100,-0.027467497
15:32:21.104,-0.028199963
15:32:21.108,-0.030763596
15:32:21.112,-0.032503205
15:32:21.116,-0.033693463
15:32:21.120,-0.035799304
15:32:21.124,-0.039095404
15:32:21.128,-0.042391503
15:32:21.132,-0.044131112
15:32:21.136,-0.043856437
15:32:21.140,-0.042391503
15:32:21.144,-0.041567478
15:32:21.148,-0.042666178
15:32:21.152,-0.045687603
15:32:21.156,-0.049166819
15:32:21.160,-0.051181102
15:32:21.164,-0.051455777
15:32:21.168,-0.050631752
15:32:21.172,-0.049624611
15:32:21.176,-0.048892144
15:32:21.180,-0.047610328
15:32:21.184,-0.043581762
15:32:21.188,-0.037264237
15:32:21.192,-0.033785021
15:32:21.196,-0.035524629
15:32:21.200,-0.035982421
15:32:21.204,-0.031038271
15:32:21.208,-0.024903864
15:32:21.212,-0.021516206
15:32:21.216,-0.020692181
15:32:21.220,-0.021058414
15:32:21.224,-0.023622047
15:32:21.228,-0.029573338
15:32:21.232,-0.037538912
15:32:21.236,-0.043856437
15:32:21.240,-0.046786303
15:32:21.244,-0.047335653
15:32:21.248,-0.046328511
15:32:21.252,-0.043581762
15:32:21.256,-0.038912287
15:32:21.260,-0.034151254
15:32:21.264,-0.031953855
15:32:21.268,-0.032411646
15:32:21.272,-0.035066838
15:32:21.276,-0.040194104
15:32:21.280,-0.04532137
15:32:21.284,-0.046236953
15:32:21.288,-0.041109687
15:32:21.292,-0.03167918
15:32:21.296,-0.022889581
15:32:21.300,-0.018952573
15:32:21.304,-0.020875298
15:32:21.308,-0.027467497
15:32:21.312,-0.037447354
15:32:21.316,-0.047701886
15:32:21.320,-0.054202527
15:32:21.324,-0.05456876
15:32:21.328,-0.049716169
15:32:21.332,-0.043032412
15:32:21.336,-0.038179821
15:32:21.340,-0.036440212
15:32:21.344,-0.036531771
15:32:21.348,-0.038088262
15:32:21.352,-0.041567478
15:32:21.356,-0.046236953
15:32:21.360,-0.049258378
15:32:21.364,-0.048617469
15:32:21.368,-0.044955136
15:32:21.372,-0.040835012
15:32:21.376,-0.038362937
15:32:21.380,-0.037081121
15:32:21.384,-0.035982421
15:32:21.388,-0.034334371
15:32:21.392,-0.030763596
15:32:21.396,-0.02453763
15:32:21.400,-0.015473357
15:32:21.404,-0.005585058
15:32:21.408,0.001739608
15:32:21.412,0.004669474
15:32:21.416,0.004761033
15:32:21.420,0.005127266
15:32:21.424,0.007782457
15:32:21.428,0.01364219
15:32:21.432,0.020783739
15:32:21.436,0.025819447
15:32:21.440,0.02618568
15:32:21.444,0.020875298
15:32:21.448,0.010986999
15:32:21.452,-0.000732467
15:32:21.456,-0.011170115
15:32:21.460,-0.018769456
15:32:21.464,-0.02453763
15:32:21.468,-0.029664897
15:32:21.472,-0.033601904
15:32:21.476,-0.034425929
15:32:21.480,-0.031038271
15:32:21.484,-0.030214246
15:32:21.488,-0.037538912
15:32:21.492,-0.04587072
15:32:21.496,-0.041933712
15:32:21.500,-0.014008423
15:32:21.504,0.044405786
15:32:21.508,0.1292803515839589
15:32:21.512,0.2235854239150339
15:32:21.516,0.302874931
15:32:21.520,0.3450833180736128
15:32:21.524,0.3331807361289141
15:32:21.528,0.2557223951657205
15:32:21.532,0.1228712689983519
15:32:21.536,-0.030305805
15:32:21.540,-0.167093939
15:32:21.544,-0.25874382
15:32:21.548,-0.287401575
15:32:21.552,-0.258835378
15:32:21.556,-0.202984801
15:32:21.560,-0.144753708
15:32:21.564,-0.095586889
15:32:21.568,-0.065464201
15:32:21.572,-0.05456876
15:32:21.576,-0.049807728
15:32:21.580,-0.041384362
15:32:21.584,-0.030763596
15:32:21.588,-0.024720747
15:32:21.592,-0.024446072
15:32:21.596,-0.026002564
15:32:21.600,-0.027192822
15:32:21.604,-0.029115547
15:32:21.608,-0.032320088
15:32:21.612,-0.034242813
15:32:21.616,-0.03222853
15:32:21.620,-0.027650613
15:32:21.624,-0.024262956
15:32:21.628,-0.023347372
15:32:21.632,-0.022340231
15:32:21.636,-0.017579198
15:32:21.640,-0.007324666
15:32:21.644,0.005310383
15:32:21.648,0.013916865
15:32:21.652,0.014924007
15:32:21.656,0.010529207
15:32:21.660,0.005035708
15:32:21.664,0.001007142
15:32:21.668,-0.00054935
15:32:21.672,0.001007142
15:32:21.676,0.005218824
15:32:21.680,0.010162974
15:32:21.684,0.01638894
15:32:21.688,0.023438931
15:32:21.692,0.029756455
15:32:21.696,0.034609046
15:32:21.700,0.037630471
15:32:21.704,0.038912287
15:32:21.708,0.039370079
15:32:21.712,0.042208387
15:32:21.716,0.052371361
15:32:21.720,0.071323933
15:32:21.724,0.093664164
15:32:21.728,0.1118842702801684
15:32:21.732,0.1227797106757004
15:32:21.736,0.1282732100347921
15:32:21.740,0.1312030763596411
15:32:21.744,0.1323933345541109
15:32:21.748,0.1338582677165354
15:32:21.752,0.1402673503021424
15:32:21.756,0.1540926570225233
15:32:21.760,0.1711225050357077
15:32:21.764,0.1835744369163157
15:32:21.768,0.1885185863394982
15:32:21.772,0.1889763779527559
15:32:21.776,0.1878776780809375
15:32:21.780,0.1851309284013917
15:32:21.784,0.1786302874931331
15:32:21.788,0.1670023805163889
15:32:21.792,0.1508881157297198
15:32:21.796,0.1319355429408533
15:32:21.800,0.1107855704083501
15:32:21.804,0.088353781
15:32:21.808,0.066105109
15:32:21.812,0.044680461
15:32:21.816,0.024262956
15:32:21.820,0.006225966
15:32:21.824,-0.007965574
15:32:21.828,-0.018128548
15:32:21.832,-0.023896722
15:32:21.836,-0.026277239
15:32:21.840,-0.026368797
15:32:21.844,-0.024629189
15:32:21.848,-0.021882439
15:32:21.852,-0.020142831
15:32:21.856,-0.021790881
15:32:21.860,-0.029023988
15:32:21.864,-0.040835012
15:32:21.868,-0.051089544
15:32:21.872,-0.053012269
15:32:21.876,-0.047701886
15:32:21.880,-0.039461637
15:32:21.884,-0.029573338
15:32:21.888,-0.021516206
15:32:21.892,-0.021516206
15:32:21.896,-0.03112983
15:32:21.900,-0.045138253
15:32:21.904,-0.054934994
15:32:21.908,-0.056674602
15:32:21.912,-0.05292071
15:32:21.916,-0.048342794
15:32:21.920,-0.044497345
15:32:21.924,-0.040560337
15:32:21.928,-0.037264237
15:32:21.932,-0.036623329
15:32:21.936,-0.038912287
15:32:21.940,-0.042483062
15:32:21.944,-0.045046695
15:32:21.948,-0.045138253
15:32:21.952,-0.042940853
15:32:21.956,-0.039370079
15:32:21.960,-0.036165537
15:32:21.964,-0.033968138
15:32:21.968,-0.032960996
15:32:21.972,-0.032869438
15:32:21.976,-0.033785021
15:32:21.980,-0.036348654
15:32:21.984,-0.040468779
15:32:21.988,-0.04257462
15:32:21.992,-0.038637612
15:32:21.996,-0.028566197
15:32:22.000,-0.01419154
15:32:22.004,0.001373375
15:32:22.008,0.010254532
15:32:22.012,0.008514924
15:32:22.016,0.002655191
15:32:22.020,-0.000366233
15:32:22.024,-9.16E-05
15:32:22.028,0.000824025
15:32:22.032,-0.002929866
15:32:22.036,-0.015381798
15:32:22.040,-0.03277788
15:32:22.044,-0.044955136
15:32:22.048,-0.04587072
15:32:22.052,-0.038362937
15:32:22.056,-0.029390222
15:32:22.060,-0.021607764
15:32:22.064,-0.013275957
15:32:22.068,-0.006225966
15:32:22.072,-0.004577916
15:32:22.076,-0.008972716
15:32:22.080,-0.015931148
15:32:22.084,-0.021699322
15:32:22.088,-0.02508698
15:32:22.092,-0.02673503
15:32:22.096,-0.028108405
15:32:22.100,-0.03058048
15:32:22.104,-0.033968138
15:32:22.108,-0.036714887
15:32:22.112,-0.037355796
15:32:22.116,-0.036806446
15:32:22.120,-0.036165537
15:32:22.124,-0.035616188
15:32:22.128,-0.033327229
15:32:22.132,-0.028291522
15:32:22.136,-0.022706464
15:32:22.140,-0.017396081
15:32:22.144,-0.011353232
15:32:22.148,-0.006042849
15:32:22.152,-0.004669474
15:32:22.156,-0.007507782
15:32:22.160,-0.012085699
15:32:22.164,-0.014832448
15:32:22.168,-0.013275957
15:32:22.172,-0.007599341
15:32:22.176,-0.001190258
15:32:22.180,0.004394799
15:32:22.184,0.010529207
15:32:22.188,0.016205823
15:32:22.192,0.019410364
15:32:22.196,0.020600623
15:32:22.200,0.020875298
15:32:22.204,0.020692181
15:32:22.208,0.019501923
15:32:22.212,0.017029848
15:32:22.216,0.013550632
15:32:22.220,0.009979857
15:32:22.224,0.007690899
15:32:22.228,0.007507782
15:32:22.232,0.008972716
15:32:22.236,0.011353232
15:32:22.240,0.01474089
15:32:22.244,0.019410364
15:32:22.248,0.024995422
15:32:22.252,0.031312946
15:32:22.256,0.038912287
15:32:22.260,0.049899286
15:32:22.264,0.063633034
15:32:22.268,0.07260575
15:32:22.272,0.067386925
15:32:22.276,0.045962278
15:32:22.280,0.018220106
15:32:22.284,-0.0010987
15:32:22.288,-0.007233107
15:32:22.292,-0.006592199
15:32:22.296,-0.005768174
15:32:22.300,-0.006317524
15:32:22.304,-0.007324666
15:32:22.308,-0.008148691
15:32:22.312,-0.009796741
15:32:22.316,-0.012360374
15:32:22.320,-0.015656473
15:32:22.324,-0.02453763
15:32:22.328,-0.038546054
15:32:22.332,-0.043764878
15:32:22.336,-0.028474638
15:32:22.340,0.013825307
15:32:22.344,0.090551181
15:32:22.348,0.1891594945980589
15:32:22.352,0.2786119758286028
15:32:22.356,0.334370994
15:32:22.360,0.3437099432338399
15:32:22.364,0.2954587071964841
15:32:22.368,0.1887932613074528
15:32:22.372,0.052462919
15:32:22.376,-0.080754441
