Timestamp,ECG Voltage (mV)
2024-06-27 15:32:04.200000,-0.013459073429774766
2024-06-27 15:32:04.204000,-0.02700970518220106
2024-06-27 15:32:04.208000,-0.04056033693462736
2024-06-27 15:32:04.212000,-0.05347006042849295
2024-06-27 15:32:04.216000,-0.06363303424281268
2024-06-27 15:32:04.220000,-0.06784471708478301
2024-06-27 15:32:04.224000,-0.06418238417872185
2024-06-27 15:32:04.228000,-0.054934993590917414
2024-06-27 15:32:04.232000,-0.0438564365500824
2024-06-27 15:32:04.236000,-0.03451748763962644
2024-06-27 15:32:04.240000,-0.028291521699322468
2024-06-27 15:32:04.244000,-0.024629188793261307
2024-06-27 15:32:04.248000,-0.02252334737227614
2024-06-27 15:32:04.252000,-0.021790880791063907
2024-06-27 15:32:04.256000,-0.020417505951290972
2024-06-27 15:32:04.260000,-0.012635048525911005
2024-06-27 15:32:04.264000,0.00466947445522798
2024-06-27 15:32:04.268000,0.02627723860098883
2024-06-27 15:32:04.272000,0.0432155282915217
2024-06-27 15:32:04.276000,0.05255447720197766
2024-06-27 15:32:04.280000,0.056766160043947994
2024-06-27 15:32:04.284000,0.05878044314228163
2024-06-27 15:32:04.288000,0.06006225965940304
2024-06-27 15:32:04.292000,0.06207654275773668
2024-06-27 15:32:04.296000,0.06546420069584326
2024-06-27 15:32:04.300000,0.06711225050357078
2024-06-27 15:32:04.304000,0.061344076176524445
2024-06-27 15:32:04.308000,0.04568760300311298
2024-06-27 15:32:04.312000,0.0261856802783373
2024-06-27 15:32:04.316000,0.01117011536348654
2024-06-27 15:32:04.320000,0.0011902581944698773
2024-06-27 15:32:04.324000,-0.00943050723310749
2024-06-27 15:32:04.328000,-0.02261490569492767
2024-06-27 15:32:04.332000,-0.03561618751144479
2024-06-27 15:32:04.336000,-0.04971616919978026
2024-06-27 15:32:04.340000,-0.06894341695660136
2024-06-27 15:32:04.344000,-0.09284013916865043
2024-06-27 15:32:04.348000,-0.11746932796191174
2024-06-27 15:32:04.352000,-0.1371543673319905
2024-06-27 15:32:04.356000,-0.14759201611426478
2024-06-27 15:32:04.360000,-0.14823292437282548
2024-06-27 15:32:04.364000,-0.1425563083684307
2024-06-27 15:32:04.368000,-0.13523164255630837
2024-06-27 15:32:04.372000,-0.12982970151986817
2024-06-27 15:32:04.376000,-0.1274491851309284
2024-06-27 15:32:04.380000,-0.12763230177623147
2024-06-27 15:32:04.384000,-0.1322102179088079
2024-06-27 15:32:04.388000,-0.14273942501373374
2024-06-27 15:32:04.392000,-0.1532686321186596
2024-06-27 15:32:04.396000,-0.15253616553744737
2024-06-27 15:32:04.400000,-0.1371543673319905
2024-06-27 15:32:04.404000,-0.11371543673319905
2024-06-27 15:32:04.408000,-0.09238234755539279
2024-06-27 15:32:04.412000,-0.08066288225599708
2024-06-27 15:32:04.416000,-0.08038820728804248
2024-06-27 15:32:04.420000,-0.08688884819630105
2024-06-27 15:32:04.424000,-0.09384728071781726
2024-06-27 15:32:04.428000,-0.10016480498077275
2024-06-27 15:32:04.432000,-0.10941219556857719
2024-06-27 15:32:04.436000,-0.12314594396630654
2024-06-27 15:32:04.440000,-0.13761215894524811
2024-06-27 15:32:04.444000,-0.14832448269547702
2024-06-27 15:32:04.448000,-0.152993957150705
2024-06-27 15:32:04.452000,-0.15436733199047795
2024-06-27 15:32:04.456000,-0.15885368980040285
2024-06-27 15:32:04.460000,-0.17139718000366233
2024-06-27 15:32:04.464000,-0.18888481963010437
2024-06-27 15:32:04.468000,-0.20362570957700055
2024-06-27 15:32:04.472000,-0.21369712506866875
2024-06-27 15:32:04.476000,-0.22349386559238235
2024-06-27 15:32:04.480000,-0.2349386559238235
2024-06-27 15:32:04.484000,-0.24565097967405236
2024-06-27 15:32:04.488000,-0.25434902032594764
2024-06-27 15:32:04.492000,-0.2589269364585241
2024-06-27 15:32:04.496000,-0.2558139534883721
2024-06-27 15:32:04.500000,-0.24528474638344624
2024-06-27 15:32:04.504000,-0.23127632301776233
2024-06-27 15:32:04.508000,-0.2145211499725325
2024-06-27 15:32:04.512000,-0.19694195202343892
2024-06-27 15:32:04.516000,-0.18412378685222486
2024-06-27 15:32:04.520000,-0.17551730452298114
2024-06-27 15:32:04.524000,-0.16544588903131294
2024-06-27 15:32:04.528000,-0.15354330708661418
2024-06-27 15:32:04.532000,-0.14402124153085516
2024-06-27 15:32:04.536000,-0.13614722578282365
2024-06-27 15:32:04.540000,-0.12223036073979125
2024-06-27 15:32:04.544000,-0.09540377220289324
2024-06-27 15:32:04.548000,-0.05713239333455411
2024-06-27 15:32:04.552000,-0.02060062259659403
2024-06-27 15:32:04.556000,0.0012818165171214063
2024-06-27 15:32:04.560000,0.011536348654092657
2024-06-27 15:32:04.564000,0.022706464017579198
2024-06-27 15:32:04.568000,0.03872917048159678
2024-06-27 15:32:04.572000,0.05310382713788683
2024-06-27 15:32:04.576000,0.06207654275773668
2024-06-27 15:32:04.580000,0.06793627540743453
2024-06-27 15:32:04.584000,0.07425379967039004
2024-06-27 15:32:04.588000,0.08331807361289141
2024-06-27 15:32:04.592000,0.09677714704266618
2024-06-27 15:32:04.596000,0.11508881157297199
2024-06-27 15:32:04.600000,0.1337667093938839
2024-06-27 15:32:04.604000,0.14557773301593116
2024-06-27 15:32:04.608000,0.1488738326313862
2024-06-27 15:32:04.612000,0.1479582494048709
2024-06-27 15:32:04.616000,0.14713422450100713
2024-06-27 15:32:04.620000,0.14832448269547702
2024-06-27 15:32:04.624000,0.15253616553744737
2024-06-27 15:32:04.628000,0.15848745650979673
2024-06-27 15:32:04.632000,0.16361472257828236
2024-06-27 15:32:04.636000,0.16791796374290424
2024-06-27 15:32:04.640000,0.1737776963926021
2024-06-27 15:32:04.644000,0.1826588536898004
2024-06-27 15:32:04.648000,0.19291338582677164
2024-06-27 15:32:04.652000,0.20161142647866692
2024-06-27 15:32:04.656000,0.2072880424830617
2024-06-27 15:32:04.660000,0.20939388390404687
2024-06-27 15:32:04.664000,0.20673869254715255
2024-06-27 15:32:04.668000,0.1993224684123787
2024-06-27 15:32:04.672000,0.18998351950192272
2024-06-27 15:32:04.676000,0.1835744369163157
2024-06-27 15:32:04.680000,0.18192638710858816
2024-06-27 15:32:04.684000,0.18384911188427028
2024-06-27 15:32:04.688000,0.18723676982237686
2024-06-27 15:32:04.692000,0.18998351950192272
2024-06-27 15:32:04.696000,0.1918146859549533
2024-06-27 15:32:04.700000,0.19364585240798388
2024-06-27 15:32:04.704000,0.19474455227980222
2024-06-27 15:32:04.708000,0.19410364402124153
2024-06-27 15:32:04.712000,0.19346273576268083
2024-06-27 15:32:04.716000,0.1949276689251053
2024-06-27 15:32:04.720000,0.19794909357260576
2024-06-27 15:32:04.724000,0.19987181834828785
2024-06-27 15:32:04.728000,0.19987181834828785
2024-06-27 15:32:04.732000,0.19923091008972715
2024-06-27 15:32:04.736000,0.19959714338033327
2024-06-27 15:32:04.740000,0.20298480131843985
2024-06-27 15:32:04.744000,0.21085881706647133
2024-06-27 15:32:04.748000,0.22093023255813954
2024-06-27 15:32:04.752000,0.22825489837026186
2024-06-27 15:32:04.756000,0.23017762314594398
2024-06-27 15:32:04.760000,0.2277971067570042
2024-06-27 15:32:04.764000,0.22440944881889763
2024-06-27 15:32:04.768000,0.22257828236586705
2024-06-27 15:32:04.772000,0.22248672404321554
2024-06-27 15:32:04.776000,0.22065555759018496
2024-06-27 15:32:04.780000,0.21278154184215345
2024-06-27 15:32:04.784000,0.19923091008972715
2024-06-27 15:32:04.788000,0.18476469511078558
2024-06-27 15:32:04.792000,0.17212964658487456
2024-06-27 15:32:04.796000,0.15702252334737227
2024-06-27 15:32:04.800000,0.13413294268449003
2024-06-27 15:32:04.804000,0.1041018128547885
2024-06-27 15:32:04.808000,0.07516938289690533
2024-06-27 15:32:04.812000,0.05649148507599341
2024-06-27 15:32:04.816000,0.05054019410364402
2024-06-27 15:32:04.820000,0.05530122688152353
2024-06-27 15:32:04.824000,0.06628822559970701
2024-06-27 15:32:04.828000,0.07233107489470793
2024-06-27 15:32:04.832000,0.061344076176524445
2024-06-27 15:32:04.836000,0.031404504669474455
2024-06-27 15:32:04.840000,-0.0026551913568943417
2024-06-27 15:32:04.844000,-0.015198681560153818
2024-06-27 15:32:04.848000,0.011078557040835012
2024-06-27 15:32:04.852000,0.07599340780076909
2024-06-27 15:32:04.856000,0.16727705548434352
2024-06-27 15:32:04.860000,0.26084966123420616
2024-06-27 15:32:04.864000,0.3273210034792163
2024-06-27 15:32:04.868000,0.3444424098150522
2024-06-27 15:32:04.872000,0.2971067570042117
2024-06-27 15:32:04.876000,0.18568027833730086
2024-06-27 15:32:04.880000,0.044588903131294634
2024-06-27 15:32:04.884000,-0.07864859915766344
2024-06-27 15:32:04.888000,-0.1691082219373741
2024-06-27 15:32:04.892000,-0.2306354147592016
2024-06-27 15:32:04.896000,-0.25755356161875115
2024-06-27 15:32:04.900000,-0.25508148690715987
2024-06-27 15:32:04.904000,-0.23841787218458158
2024-06-27 15:32:04.908000,-0.20600622596594031
2024-06-27 15:32:04.912000,-0.15738875663797838
2024-06-27 15:32:04.916000,-0.11197582860282
2024-06-27 15:32:04.920000,-0.08762131477751328
2024-06-27 15:32:04.924000,-0.08258560703167918
2024-06-27 15:32:04.928000,-0.08533235671122505
2024-06-27 15:32:04.932000,-0.08844533968137704
2024-06-27 15:32:04.936000,-0.08945248123054386
2024-06-27 15:32:04.940000,-0.08597326496978576
2024-06-27 15:32:04.944000,-0.07672587438198132
2024-06-27 15:32:04.948000,-0.06583043398644937
2024-06-27 15:32:04.952000,-0.06097784288591833
2024-06-27 15:32:04.956000,-0.06335835927485808
2024-06-27 15:32:04.960000,-0.06766160043947995
2024-06-27 15:32:04.964000,-0.06976744186046512
2024-06-27 15:32:04.968000,-0.06995055850576817
2024-06-27 15:32:04.972000,-0.0696758835378136
2024-06-27 15:32:04.976000,-0.06930965024720748
2024-06-27 15:32:04.980000,-0.06866874198864677
2024-06-27 15:32:04.984000,-0.06793627540743453
2024-06-27 15:32:04.988000,-0.06802783373008607
2024-06-27 15:32:04.992000,-0.07013367515107123
2024-06-27 15:32:04.996000,-0.07278886650796558
2024-06-27 15:32:05.000000,-0.0715986083134957
2024-06-27 15:32:05.004000,-0.061344076176524445
2024-06-27 15:32:05.008000,-0.04239150338765794
2024-06-27 15:32:05.012000,-0.023072697308185314
2024-06-27 15:32:05.016000,-0.010712323750228896
2024-06-27 15:32:05.020000,-0.003479216260758103
2024-06-27 15:32:05.024000,0.005768174327046328
2024-06-27 15:32:05.028000,0.018128547885002746
2024-06-27 15:32:05.032000,0.02710126350485259
2024-06-27 15:32:05.036000,0.02728438015015565
2024-06-27 15:32:05.040000,0.01977659769273027
2024-06-27 15:32:05.044000,0.012085698590001831
2024-06-27 15:32:05.048000,0.011536348654092657
2024-06-27 15:32:05.052000,0.017396081303790514
2024-06-27 15:32:05.056000,0.023805163889397546
2024-06-27 15:32:05.060000,0.028749313312580113
2024-06-27 15:32:05.064000,0.034334370994323384
2024-06-27 15:32:05.068000,0.044588903131294634
2024-06-27 15:32:05.072000,0.06198498443508515
2024-06-27 15:32:05.076000,0.08221937374107306
2024-06-27 15:32:05.080000,0.09879143014099982
2024-06-27 15:32:05.084000,0.11014466214978942
2024-06-27 15:32:05.088000,0.12058231093206373
2024-06-27 15:32:05.092000,0.13578099249221753
2024-06-27 15:32:05.096000,0.15629005676616003
2024-06-27 15:32:05.100000,0.17524262955502656
2024-06-27 15:32:05.104000,0.18604651162790697
2024-06-27 15:32:05.108000,0.18980040285661967
2024-06-27 15:32:05.112000,0.1927302691814686
2024-06-27 15:32:05.116000,0.1965757187328328
2024-06-27 15:32:05.120000,0.19721662699139353
2024-06-27 15:32:05.124000,0.18998351950192272
2024-06-27 15:32:05.128000,0.17551730452298114
2024-06-27 15:32:05.132000,0.15903680644570592
2024-06-27 15:32:05.136000,0.14521149972532504
2024-06-27 15:32:05.140000,0.1337667093938839
2024-06-27 15:32:05.144000,0.11792711957516938
2024-06-27 15:32:05.148000,0.0921076725874382
2024-06-27 15:32:05.152000,0.059512909723493865
2024-06-27 15:32:05.156000,0.027467496795458707
2024-06-27 15:32:05.160000,0.0003662332906061161
2024-06-27 15:32:05.164000,-0.01959348104742721
2024-06-27 15:32:05.168000,-0.03167917963742904
2024-06-27 15:32:05.172000,-0.037081120673869254
2024-06-27 15:32:05.176000,-0.03808826222303607
2024-06-27 15:32:05.180000,-0.03662332906061161
2024-06-27 15:32:05.184000,-0.03589086247939938
2024-06-27 15:32:05.188000,-0.04056033693462736
2024-06-27 15:32:05.192000,-0.05347006042849295
2024-06-27 15:32:05.196000,-0.07260574986266252
2024-06-27 15:32:05.200000,-0.09164988097418056
2024-06-27 15:32:05.204000,-0.10391869620948545
2024-06-27 15:32:05.208000,-0.10803882072880425
2024-06-27 15:32:05.212000,-0.10794726240615272
2024-06-27 15:32:05.216000,-0.10803882072880425
2024-06-27 15:32:05.220000,-0.10922907892327413
2024-06-27 15:32:05.224000,-0.1106940120856986
2024-06-27 15:32:05.228000,-0.11206738692547152
2024-06-27 15:32:05.232000,-0.11316608679728987
2024-06-27 15:32:05.236000,-0.11334920344259293
2024-06-27 15:32:05.240000,-0.11206738692547152
2024-06-27 15:32:05.244000,-0.10858817066471342
2024-06-27 15:32:05.248000,-0.10291155466031862
2024-06-27 15:32:05.252000,-0.09696026368796924
2024-06-27 15:32:05.256000,-0.09293169749130196
2024-06-27 15:32:05.260000,-0.09155832265152902
2024-06-27 15:32:05.264000,-0.09183299761948362
2024-06-27 15:32:05.268000,-0.09174143929683208
2024-06-27 15:32:05.272000,-0.08908624793993775
2024-06-27 15:32:05.276000,-0.08267716535433071
2024-06-27 15:32:05.280000,-0.07434535799304157
2024-06-27 15:32:05.284000,-0.06839406702069219
2024-06-27 15:32:05.288000,-0.06683757553561619
2024-06-27 15:32:05.292000,-0.06757004211682842
2024-06-27 15:32:05.296000,-0.06729536714887384
2024-06-27 15:32:05.300000,-0.06344991759750962
2024-06-27 15:32:05.304000,-0.05539278520417506
2024-06-27 15:32:05.308000,-0.044588903131294634
2024-06-27 15:32:05.312000,-0.03351034609045962
2024-06-27 15:32:05.316000,-0.024171397180003662
2024-06-27 15:32:05.320000,-0.015564914850759934
2024-06-27 15:32:05.324000,-0.004486357809924922
2024-06-27 15:32:05.328000,0.009796740523713605
2024-06-27 15:32:05.332000,0.023713605566746017
2024-06-27 15:32:05.336000,0.034334370994323384
2024-06-27 15:32:05.340000,0.04110968687053653
2024-06-27 15:32:05.344000,0.04486357809924922
2024-06-27 15:32:05.348000,0.046236952939022156
2024-06-27 15:32:05.352000,0.04761032777879509
2024-06-27 15:32:05.356000,0.051089544039553195
2024-06-27 15:32:05.360000,0.053836293719099065
2024-06-27 15:32:05.364000,0.05136421900750778
2024-06-27 15:32:05.368000,0.047244094488188976
2024-06-27 15:32:05.372000,0.04797656106940121
2024-06-27 15:32:05.376000,0.0517304522981139
2024-06-27 15:32:05.380000,0.05255447720197766
2024-06-27 15:32:05.384000,0.050173960813037904
2024-06-27 15:32:05.388000,0.04788500274674968
2024-06-27 15:32:05.392000,0.04696941952023439
2024-06-27 15:32:05.396000,0.04513825306720381
2024-06-27 15:32:05.400000,0.04001098699871818
2024-06-27 15:32:05.404000,0.033235671122505035
2024-06-27 15:32:05.408000,0.028657754989928584
2024-06-27 15:32:05.412000,0.027467496795458707
2024-06-27 15:32:05.416000,0.02810840505401941
2024-06-27 15:32:05.420000,0.02719282182750412
2024-06-27 15:32:05.424000,0.02160776414576085
2024-06-27 15:32:05.428000,0.012360373557956418
2024-06-27 15:32:05.432000,0.0011902581944698773
2024-06-27 15:32:05.436000,-0.01217725691265336
2024-06-27 15:32:05.440000,-0.023896722212049075
2024-06-27 15:32:05.444000,-0.028657754989928584
2024-06-27 15:32:05.448000,-0.026551913568943417
2024-06-27 15:32:05.452000,-0.020966855887200146
2024-06-27 15:32:05.456000,-0.016480498077275224
2024-06-27 15:32:05.460000,-0.018403222852957334
2024-06-27 15:32:05.464000,-0.02893242995788317
2024-06-27 15:32:05.468000,-0.04312396996887017
2024-06-27 15:32:05.472000,-0.052920710492583775
2024-06-27 15:32:05.476000,-0.05594213514008423
2024-06-27 15:32:05.480000,-0.05530122688152353
2024-06-27 15:32:05.484000,-0.05447720197765977
2024-06-27 15:32:05.488000,-0.05466031862296283
2024-06-27 15:32:05.492000,-0.05557590184947812
2024-06-27 15:32:05.496000,-0.056766160043947994
2024-06-27 15:32:05.500000,-0.05731550997985717
2024-06-27 15:32:05.504000,-0.055759018494781175
2024-06-27 15:32:05.508000,-0.05310382713788683
2024-06-27 15:32:05.512000,-0.050997985716901666
2024-06-27 15:32:05.516000,-0.04971616919978026
2024-06-27 15:32:05.520000,-0.04870902765061344
2024-06-27 15:32:05.524000,-0.04779344442409815
2024-06-27 15:32:05.528000,-0.046328511261673685
2024-06-27 15:32:05.532000,-0.04495513642190075
2024-06-27 15:32:05.536000,-0.044405786485991576
2024-06-27 15:32:05.540000,-0.044588903131294634
2024-06-27 15:32:05.544000,-0.044588903131294634
2024-06-27 15:32:05.548000,-0.04229994506500641
2024-06-27 15:32:05.552000,-0.03589086247939938
2024-06-27 15:32:05.556000,-0.0261856802783373
2024-06-27 15:32:05.560000,-0.014649331624244644
2024-06-27 15:32:05.564000,-0.0014649331624244644
2024-06-27 15:32:05.568000,0.012543490203259476
2024-06-27 15:32:05.572000,0.02343893059879143
2024-06-27 15:32:05.576000,0.028657754989928584
2024-06-27 15:32:05.580000,0.03003112982970152
2024-06-27 15:32:05.584000,0.030488921442959165
2024-06-27 15:32:05.588000,0.03076359641091375
2024-06-27 15:32:05.592000,0.030488921442959165
2024-06-27 15:32:05.596000,0.029298663248489287
2024-06-27 15:32:05.600000,0.025544772019776597
2024-06-27 15:32:05.604000,0.016572056399926753
2024-06-27 15:32:05.608000,0.0030214246475004577
2024-06-27 15:32:05.612000,-0.010529207104925838
2024-06-27 15:32:05.616000,-0.020142830983336385
2024-06-27 15:32:05.620000,-0.023713605566746017
2024-06-27 15:32:05.624000,-0.020875297564548617
2024-06-27 15:32:05.628000,-0.01583958981871452
2024-06-27 15:32:05.632000,-0.018403222852957334
2024-06-27 15:32:05.636000,-0.03570774583409632
2024-06-27 15:32:05.640000,-0.05905511811023622
2024-06-27 15:32:05.644000,-0.0637245925654642
2024-06-27 15:32:05.648000,-0.02545321369712507
2024-06-27 15:32:05.652000,0.05832265152902399
2024-06-27 15:32:05.656000,0.1659036806445706
2024-06-27 15:32:05.660000,0.26478666910822196
2024-06-27 15:32:05.664000,0.32796191173777695
2024-06-27 15:32:05.668000,0.34627357626808275
2024-06-27 15:32:05.672000,0.31596777147042665
2024-06-27 15:32:05.676000,0.2280717817249588
2024-06-27 15:32:05.680000,0.09439663065372643
2024-06-27 15:32:05.684000,-0.047427211133492034
2024-06-27 15:32:05.688000,-0.16636147225782824
2024-06-27 15:32:05.692000,-0.24739058780443143
2024-06-27 15:32:05.696000,-0.2798937923457242
2024-06-27 15:32:05.700000,-0.268082768723677
2024-06-27 15:32:05.704000,-0.2331074894707929
2024-06-27 15:32:05.708000,-0.18760300311298297
2024-06-27 15:32:05.712000,-0.13687969236403588
2024-06-27 15:32:05.716000,-0.09760117194652994
2024-06-27 15:32:05.720000,-0.0807544405786486
2024-06-27 15:32:05.724000,-0.0785570408350119
2024-06-27 15:32:05.728000,-0.07864859915766344
2024-06-27 15:32:05.732000,-0.07645119941402674
2024-06-27 15:32:05.736000,-0.07324665812122322
2024-06-27 15:32:05.740000,-0.07150704999084417
2024-06-27 15:32:05.744000,-0.07086614173228346
2024-06-27 15:32:05.748000,-0.06830250869804065
2024-06-27 15:32:05.752000,-0.06262589269364585
2024-06-27 15:32:05.756000,-0.0574070683025087
2024-06-27 15:32:05.760000,-0.056674601721296465
2024-06-27 15:32:05.764000,-0.059421351400842336
2024-06-27 15:32:05.768000,-0.06161875114447903
2024-06-27 15:32:05.772000,-0.06070316791796374
2024-06-27 15:32:05.776000,-0.05603369346273576
2024-06-27 15:32:05.780000,-0.049258377586522614
2024-06-27 15:32:05.784000,-0.04312396996887017
2024-06-27 15:32:05.788000,-0.03909540377220289
2024-06-27 15:32:05.792000,-0.03763047060977843
2024-06-27 15:32:05.796000,-0.037996703900384544
2024-06-27 15:32:05.800000,-0.037081120673869254
2024-06-27 15:32:05.804000,-0.03369346273576268
2024-06-27 15:32:05.808000,-0.027467496795458707
2024-06-27 15:32:05.812000,-0.018311664530305805
2024-06-27 15:32:05.816000,-0.009796740523713605
2024-06-27 15:32:05.820000,-0.005768174327046328
2024-06-27 15:32:05.824000,-0.004577916132576451
2024-06-27 15:32:05.828000,-0.0029298663248489287
2024-06-27 15:32:05.832000,0.0015564914850759934
2024-06-27 15:32:05.836000,0.008881157297198315
2024-06-27 15:32:05.840000,0.016205823109320637
2024-06-27 15:32:05.844000,0.021333089177806262
2024-06-27 15:32:05.848000,0.025086980406518952
2024-06-27 15:32:05.852000,0.029664896539095403
2024-06-27 15:32:05.856000,0.03735579564182384
2024-06-27 15:32:05.860000,0.04806811939205274
2024-06-27 15:32:05.864000,0.05813953488372093
2024-06-27 15:32:05.868000,0.06509796740523714
2024-06-27 15:32:05.872000,0.07022523347372277
2024-06-27 15:32:05.876000,0.07590184947811757
2024-06-27 15:32:05.880000,0.08405054019410364
2024-06-27 15:32:05.884000,0.09622779710675701
2024-06-27 15:32:05.888000,0.11133492034425929
2024-06-27 15:32:05.892000,0.12854788500274675
2024-06-27 15:32:05.896000,0.14978941585790148
2024-06-27 15:32:05.900000,0.17432704632851126
2024-06-27 15:32:05.904000,0.19410364402124153
2024-06-27 15:32:05.908000,0.20371726789965208
2024-06-27 15:32:05.912000,0.20582310932063724
2024-06-27 15:32:05.916000,0.20591466764328878
2024-06-27 15:32:05.920000,0.2062809009338949
2024-06-27 15:32:05.924000,0.20582310932063724
2024-06-27 15:32:05.928000,0.20225233473722762
2024-06-27 15:32:05.932000,0.19483611060245376
2024-06-27 15:32:05.936000,0.18503937007874016
2024-06-27 15:32:05.940000,0.1737776963926021
2024-06-27 15:32:05.944000,0.15839589818714522
2024-06-27 15:32:05.948000,0.13623878410547519
2024-06-27 15:32:05.952000,0.10895440395531954
2024-06-27 15:32:05.956000,0.08057132393334554
2024-06-27 15:32:05.960000,0.055209668558872
2024-06-27 15:32:05.964000,0.03488372093023256
2024-06-27 15:32:05.968000,0.02060062259659403
2024-06-27 15:32:05.972000,0.01318439846182018
2024-06-27 15:32:05.976000,0.00943050723310749
2024-06-27 15:32:05.980000,0.0028383080021973997
2024-06-27 15:32:05.984000,-0.01034609045962278
2024-06-27 15:32:05.988000,-0.025819446987731184
2024-06-27 15:32:05.992000,-0.03625709577000549
2024-06-27 15:32:05.996000,-0.03937007874015748
2024-06-27 15:32:06.000000,-0.03863761215894525
2024-06-27 15:32:06.004000,-0.03863761215894525
2024-06-27 15:32:06.008000,-0.041659036806445705
2024-06-27 15:32:06.012000,-0.047427211133492034
2024-06-27 15:32:06.016000,-0.05429408533235671
2024-06-27 15:32:06.020000,-0.06106940120856986
2024-06-27 15:32:06.024000,-0.06711225050357078
2024-06-27 15:32:06.028000,-0.07123237502288958
2024-06-27 15:32:06.032000,-0.07324665812122322
2024-06-27 15:32:06.036000,-0.07388756637978393
2024-06-27 15:32:06.040000,-0.07425379967039004
2024-06-27 15:32:06.044000,-0.07553561618751145
2024-06-27 15:32:06.048000,-0.07745834096319355
2024-06-27 15:32:06.052000,-0.07846548251236038
2024-06-27 15:32:06.056000,-0.07690899102728438
2024-06-27 15:32:06.060000,-0.07242263321735946
2024-06-27 15:32:06.064000,-0.06711225050357078
2024-06-27 15:32:06.068000,-0.062259659403039735
2024-06-27 15:32:06.072000,-0.05786485991576634
2024-06-27 15:32:06.076000,-0.05621681010803882
2024-06-27 15:32:06.080000,-0.06006225965940304
2024-06-27 15:32:06.084000,-0.06821095037538913
2024-06-27 15:32:06.088000,-0.07654275773667826
2024-06-27 15:32:06.092000,-0.08112067386925471
2024-06-27 15:32:06.096000,-0.08221937374107306
2024-06-27 15:32:06.100000,-0.0823109320637246
2024-06-27 15:32:06.104000,-0.08276872367698224
2024-06-27 15:32:06.108000,-0.083592748580846
2024-06-27 15:32:06.112000,-0.08505768174327047
2024-06-27 15:32:06.116000,-0.08752975645486175
2024-06-27 15:32:06.120000,-0.08917780626258927
2024-06-27 15:32:06.124000,-0.08514924006592199
2024-06-27 15:32:06.128000,-0.07077458340963194
2024-06-27 15:32:06.132000,-0.0495330525544772
2024-06-27 15:32:06.136000,-0.03195385460538363
2024-06-27 15:32:06.140000,-0.023805163889397546
2024-06-27 15:32:06.144000,-0.023713605566746017
2024-06-27 15:32:06.148000,-0.027925288408716352
2024-06-27 15:32:06.152000,-0.03296099615455045
2024-06-27 15:32:06.156000,-0.036898004028566196
2024-06-27 15:32:06.160000,-0.0403772202893243
2024-06-27 15:32:06.164000,-0.04394799487273393
2024-06-27 15:32:06.168000,-0.04715253616553745
2024-06-27 15:32:06.172000,-0.0495330525544772
2024-06-27 15:32:06.176000,-0.051089544039553195
2024-06-27 15:32:06.180000,-0.051913568943416956
2024-06-27 15:32:06.184000,-0.053012268815235304
2024-06-27 15:32:06.188000,-0.056674601721296465
2024-06-27 15:32:06.192000,-0.06344991759750962
2024-06-27 15:32:06.196000,-0.06903497527925288
2024-06-27 15:32:06.200000,-0.06766160043947995
2024-06-27 15:32:06.204000,-0.060520051272660684
2024-06-27 15:32:06.208000,-0.05420252700970518
2024-06-27 15:32:06.212000,-0.05127266068485625
2024-06-27 15:32:06.216000,-0.04797656106940121
2024-06-27 15:32:06.220000,-0.04092657022523347
2024-06-27 15:32:06.224000,-0.032228529573338216
2024-06-27 15:32:06.228000,-0.02435451382530672
2024-06-27 15:32:06.232000,-0.018220106207654276
2024-06-27 15:32:06.236000,-0.017029848013184398
2024-06-27 15:32:06.240000,-0.021790880791063907
2024-06-27 15:32:06.244000,-0.02810840505401941
2024-06-27 15:32:06.248000,-0.032320087895989745
2024-06-27 15:32:06.252000,-0.034059696026368796
2024-06-27 15:32:06.256000,-0.034334370994323384
2024-06-27 15:32:06.260000,-0.03451748763962644
2024-06-27 15:32:06.264000,-0.036165537447353964
2024-06-27 15:32:06.268000,-0.03955319538546054
2024-06-27 15:32:06.272000,-0.04294085332356711
2024-06-27 15:32:06.276000,-0.04211682841970335
2024-06-27 15:32:06.280000,-0.035249954220838674
2024-06-27 15:32:06.284000,-0.0261856802783373
2024-06-27 15:32:06.288000,-0.017304522981138985
2024-06-27 15:32:06.292000,-0.007324665812122322
2024-06-27 15:32:06.296000,0.0026551913568943417
2024-06-27 15:32:06.300000,0.009613623878410547
2024-06-27 15:32:06.304000,0.013275956784471708
2024-06-27 15:32:06.308000,0.01675517304522981
2024-06-27 15:32:06.312000,0.022157114081670023
2024-06-27 15:32:06.316000,0.026551913568943417
2024-06-27 15:32:06.320000,0.02142464750045779
2024-06-27 15:32:06.324000,0.0011902581944698773
2024-06-27 15:32:06.328000,-0.02700970518220106
2024-06-27 15:32:06.332000,-0.04678630287493133
2024-06-27 15:32:06.336000,-0.0488921442959165
2024-06-27 15:32:06.340000,-0.037996703900384544
2024-06-27 15:32:06.344000,-0.024903863761215894
2024-06-27 15:32:06.348000,-0.013825306720380882
2024-06-27 15:32:06.352000,-0.0025636330342428126
2024-06-27 15:32:06.356000,0.006958432521516206
2024-06-27 15:32:06.360000,0.010529207104925838
2024-06-27 15:32:06.364000,0.008881157297198315
2024-06-27 15:32:06.368000,0.0059512909723493865
2024-06-27 15:32:06.372000,0.004303241164621864
2024-06-27 15:32:06.376000,0.003570774583409632
2024-06-27 15:32:06.380000,0.0004577916132576451
2024-06-27 15:32:06.384000,-0.006317524262955503
2024-06-27 15:32:06.388000,-0.011719465299395715
2024-06-27 15:32:06.392000,-0.008881157297198315
2024-06-27 15:32:06.396000,0.00018311664530305805
2024-06-27 15:32:06.400000,0.007233107489470793
2024-06-27 15:32:06.404000,0.009796740523713605
2024-06-27 15:32:06.408000,0.011811023622047244
2024-06-27 15:32:06.412000,0.01593114814136605
2024-06-27 15:32:06.416000,0.020417505951290972
2024-06-27 15:32:06.420000,0.02243178904962461
2024-06-27 15:32:06.424000,0.022248672404321553
2024-06-27 15:32:06.428000,0.021790880791063907
2024-06-27 15:32:06.432000,0.02151620582310932
2024-06-27 15:32:06.436000,0.01959348104742721
2024-06-27 15:32:06.440000,0.012360373557956418
2024-06-27 15:32:06.444000,-0.0027467496795458707
2024-06-27 15:32:06.448000,-0.021241530855154733
2024-06-27 15:32:06.452000,-0.034242812671671854
2024-06-27 15:32:06.456000,-0.037905145577733015
2024-06-27 15:32:06.460000,-0.03570774583409632
2024-06-27 15:32:06.464000,-0.032228529573338216
2024-06-27 15:32:06.468000,-0.03076359641091375
2024-06-27 15:32:06.472000,-0.035158395898187145
2024-06-27 15:32:06.476000,-0.047244094488188976
2024-06-27 15:32:06.480000,-0.06299212598425197
2024-06-27 15:32:06.484000,-0.07333821644387475
2024-06-27 15:32:06.488000,-0.06198498443508515
2024-06-27 15:32:06.492000,-0.01217725691265336
2024-06-27 15:32:06.496000,0.07260574986266252
2024-06-27 15:32:06.500000,0.17258743819813221
2024-06-27 15:32:06.504000,0.26194836110602454
2024-06-27 15:32:06.508000,0.31779893792345726
2024-06-27 15:32:06.512000,0.3272294451565647
2024-06-27 15:32:06.516000,0.28145028383080023
2024-06-27 15:32:06.520000,0.18284197033510347
2024-06-27 15:32:06.524000,0.053836293719099065
2024-06-27 15:32:06.528000,-0.07672587438198132
2024-06-27 15:32:06.532000,-0.1820179454312397
2024-06-27 15:32:06.536000,-0.239699688701703
2024-06-27 15:32:06.540000,-0.24336202160776416
2024-06-27 15:32:06.544000,-0.21369712506866875
2024-06-27 15:32:06.548000,-0.17780626258926938
2024-06-27 15:32:06.552000,-0.13834462552646035
2024-06-27 15:32:06.556000,-0.0958615638161509
2024-06-27 15:32:06.560000,-0.06344991759750962
2024-06-27 15:32:06.564000,-0.04486357809924922
2024-06-27 15:32:06.568000,-0.0347006042849295
2024-06-27 15:32:06.572000,-0.030214246475004577
2024-06-27 15:32:06.576000,-0.028749313312580113
2024-06-27 15:32:06.580000,-0.026460355246291888
2024-06-27 15:32:06.584000,-0.019318806079472624
2024-06-27 15:32:06.588000,-0.005127266068485625
2024-06-27 15:32:06.592000,0.011811023622047244
2024-06-27 15:32:06.596000,0.02252334737227614
2024-06-27 15:32:06.600000,0.022798022340230727
2024-06-27 15:32:06.604000,0.016572056399926753
2024-06-27 15:32:06.608000,0.009705182201062076
2024-06-27 15:32:06.612000,0.005676616004394799
2024-06-27 15:32:06.616000,0.005401941036440212
2024-06-27 15:32:06.620000,0.007690899102728438
2024-06-27 15:32:06.624000,0.011811023622047244
2024-06-27 15:32:06.628000,0.01785387291704816
2024-06-27 15:32:06.632000,0.02536165537447354
2024-06-27 15:32:06.636000,0.031129829701519868
2024-06-27 15:32:06.640000,0.033144112799853506
2024-06-27 15:32:06.644000,0.0325032045412928
2024-06-27 15:32:06.648000,0.03085515473356528
2024-06-27 15:32:06.652000,0.03003112982970152
2024-06-27 15:32:06.656000,0.03277787950924739
2024-06-27 15:32:06.660000,0.04129280351583959
2024-06-27 15:32:06.664000,0.053012268815235304
2024-06-27 15:32:06.668000,0.0615271928218275
2024-06-27 15:32:06.672000,0.06354147592016114
2024-06-27 15:32:06.676000,0.06061160959531221
2024-06-27 15:32:06.680000,0.056583043398644936
2024-06-27 15:32:06.684000,0.053836293719099065
2024-06-27 15:32:06.688000,0.052829152169932246
2024-06-27 15:32:06.692000,0.05246291887932613
2024-06-27 15:32:06.696000,0.051913568943416956
2024-06-27 15:32:06.700000,0.051089544039553195
2024-06-27 15:32:06.704000,0.05035707745834096
2024-06-27 15:32:06.708000,0.05054019410364402
2024-06-27 15:32:06.712000,0.052829152169932246
2024-06-27 15:32:06.716000,0.05685771836659952
2024-06-27 15:32:06.720000,0.060520051272660684
2024-06-27 15:32:06.724000,0.062168101080388206
2024-06-27 15:32:06.728000,0.062259659403039735
2024-06-27 15:32:06.732000,0.0639992675334188
2024-06-27 15:32:06.736000,0.07388756637978393
2024-06-27 15:32:06.740000,0.09677714704266618
2024-06-27 15:32:06.744000,0.12699139351767075
2024-06-27 15:32:06.748000,0.15198681560153818
2024-06-27 15:32:06.752000,0.1649880974180553
2024-06-27 15:32:06.756000,0.16919978026002563
2024-06-27 15:32:06.760000,0.17020692180919245
2024-06-27 15:32:06.764000,0.17057315509979856
2024-06-27 15:32:06.768000,0.1693828969053287
2024-06-27 15:32:06.772000,0.16315693096502473
2024-06-27 15:32:06.776000,0.14933162424464383
2024-06-27 15:32:06.780000,0.1322102179088079
2024-06-27 15:32:06.784000,0.12003296099615456
2024-06-27 15:32:06.788000,0.11252517853872918
2024-06-27 15:32:06.792000,0.10016480498077275
2024-06-27 15:32:06.796000,0.0766343160593298
2024-06-27 15:32:06.800000,0.04513825306720381
2024-06-27 15:32:06.804000,0.012451931880607947
2024-06-27 15:32:06.808000,-0.016663614722578282
2024-06-27 15:32:06.812000,-0.03763047060977843
2024-06-27 15:32:06.816000,-0.04660318622962827
2024-06-27 15:32:06.820000,-0.04587071964841604
2024-06-27 15:32:06.824000,-0.0432155282915217
2024-06-27 15:32:06.828000,-0.0438564365500824
2024-06-27 15:32:06.832000,-0.0460538362937191
2024-06-27 15:32:06.836000,-0.04577916132576451
2024-06-27 15:32:06.840000,-0.04294085332356711
2024-06-27 15:32:06.844000,-0.041018128547885
2024-06-27 15:32:06.848000,-0.04248306171030947
2024-06-27 15:32:06.852000,-0.04513825306720381
2024-06-27 15:32:06.856000,-0.04495513642190075
2024-06-27 15:32:06.860000,-0.04046877861197583
2024-06-27 15:32:06.864000,-0.034151254349020325
2024-06-27 15:32:06.868000,-0.030305804797656107
2024-06-27 15:32:06.872000,-0.029207104925837758
2024-06-27 15:32:06.876000,-0.026002563633034242
2024-06-27 15:32:06.880000,-0.01602270646401758
2024-06-27 15:32:06.884000,-0.0007324665812122322
2024-06-27 15:32:06.888000,0.01409998168833547
2024-06-27 15:32:06.892000,0.022798022340230727
2024-06-27 15:32:06.896000,0.020783739241897088
2024-06-27 15:32:06.900000,0.010437648782274309
2024-06-27 15:32:06.904000,0.0003662332906061161
2024-06-27 15:32:06.908000,-0.005218824391137154
2024-06-27 15:32:06.912000,-0.008881157297198315
2024-06-27 15:32:06.916000,-0.01126167368613807
2024-06-27 15:32:06.920000,-0.010162973814319722
2024-06-27 15:32:06.924000,-0.00558505768174327
2024-06-27 15:32:06.928000,-0.0003662332906061161
2024-06-27 15:32:06.932000,0.0030214246475004577
2024-06-27 15:32:06.936000,0.005218824391137154
2024-06-27 15:32:06.940000,0.007782457425379967
2024-06-27 15:32:06.944000,0.010437648782274309
2024-06-27 15:32:06.948000,0.011994140267350302
2024-06-27 15:32:06.952000,0.012635048525911005
2024-06-27 15:32:06.956000,0.015381798205456876
2024-06-27 15:32:06.960000,0.023255813953488372
2024-06-27 15:32:06.964000,0.034242812671671854
2024-06-27 15:32:06.968000,0.042574620032960996
2024-06-27 15:32:06.972000,0.044588903131294634
2024-06-27 15:32:06.976000,0.04028566196667277
2024-06-27 15:32:06.980000,0.02893242995788317
2024-06-27 15:32:06.984000,0.007141549166819264
2024-06-27 15:32:06.988000,-0.02142464750045779
2024-06-27 15:32:06.992000,-0.042757736678264054
2024-06-27 15:32:06.996000,-0.04422266984068852
2024-06-27 15:32:07.000000,-0.025544772019776597
2024-06-27 15:32:07.004000,0.0009155832265152902
2024-06-27 15:32:07.008000,0.01959348104742721
2024-06-27 15:32:07.012000,0.024903863761215894
2024-06-27 15:32:07.016000,0.02252334737227614
2024-06-27 15:32:07.020000,0.01977659769273027
2024-06-27 15:32:07.024000,0.018952572788866508
2024-06-27 15:32:07.028000,0.01785387291704816
2024-06-27 15:32:07.032000,0.011811023622047244
2024-06-27 15:32:07.036000,-0.0028383080021973997
2024-06-27 15:32:07.040000,-0.02343893059879143
2024-06-27 15:32:07.044000,-0.04110968687053653
2024-06-27 15:32:07.048000,-0.05090642739425014
2024-06-27 15:32:07.052000,-0.053927852041750594
2024-06-27 15:32:07.056000,-0.053012268815235304
2024-06-27 15:32:07.060000,-0.05054019410364402
2024-06-27 15:32:07.064000,-0.048159677714704266
2024-06-27 15:32:07.068000,-0.046328511261673685
2024-06-27 15:32:07.072000,-0.044588903131294634
2024-06-27 15:32:07.076000,-0.04284929500091558
2024-06-27 15:32:07.080000,-0.041567478483794176
2024-06-27 15:32:07.084000,-0.04001098699871818
2024-06-27 15:32:07.088000,-0.03836293719099066
2024-06-27 15:32:07.092000,-0.037996703900384544
2024-06-27 15:32:07.096000,-0.039827870353415125
2024-06-27 15:32:07.100000,-0.042666178355612525
2024-06-27 15:32:07.104000,-0.04413111151803699
2024-06-27 15:32:07.108000,-0.04376487822743087
2024-06-27 15:32:07.112000,-0.0432155282915217
2024-06-27 15:32:07.116000,-0.04339864493682476
2024-06-27 15:32:07.120000,-0.04211682841970335
2024-06-27 15:32:07.124000,-0.036898004028566196
2024-06-27 15:32:07.128000,-0.028291521699322468
2024-06-27 15:32:07.132000,-0.019135689434169566
2024-06-27 15:32:07.136000,-0.012909723493865592
2024-06-27 15:32:07.140000,-0.009705182201062076
2024-06-27 15:32:07.144000,-0.007690899102728438
2024-06-27 15:32:07.148000,-0.006409082585607032
2024-06-27 15:32:07.152000,-0.008606482329243728
2024-06-27 15:32:07.156000,-0.015564914850759934
2024-06-27 15:32:07.160000,-0.02426295550265519
2024-06-27 15:32:07.164000,-0.03268632118659586
2024-06-27 15:32:07.168000,-0.04229994506500641
2024-06-27 15:32:07.172000,-0.05063175242629555
2024-06-27 15:32:07.176000,-0.05182201062076543
2024-06-27 15:32:07.180000,-0.04486357809924922
2024-06-27 15:32:07.184000,-0.034334370994323384
2024-06-27 15:32:07.188000,-0.025544772019776597
2024-06-27 15:32:07.192000,-0.019227247756821095
2024-06-27 15:32:07.196000,-0.01309284013916865
2024-06-27 15:32:07.200000,-0.0060428492950009155
2024-06-27 15:32:07.204000,0.00018311664530305805
2024-06-27 15:32:07.208000,0.003937007874015748
2024-06-27 15:32:07.212000,0.004211682841970335
2024-06-27 15:32:07.216000,0.0014649331624244644
2024-06-27 15:32:07.220000,-0.003479216260758103
2024-06-27 15:32:07.224000,-0.01034609045962278
2024-06-27 15:32:07.228000,-0.016205823109320637
2024-06-27 15:32:07.232000,-0.016663614722578282
2024-06-27 15:32:07.236000,-0.011353232008789599
2024-06-27 15:32:07.240000,-0.0027467496795458707
2024-06-27 15:32:07.244000,0.007324665812122322
2024-06-27 15:32:07.248000,0.015198681560153818
2024-06-27 15:32:07.252000,0.018494781175608863
2024-06-27 15:32:07.256000,0.020783739241897088
2024-06-27 15:32:07.260000,0.02700970518220106
2024-06-27 15:32:07.264000,0.03589086247939938
2024-06-27 15:32:07.268000,0.04220838674235488
2024-06-27 15:32:07.272000,0.04431422816334005
2024-06-27 15:32:07.276000,0.04596227797106757
2024-06-27 15:32:07.280000,0.05127266068485625
2024-06-27 15:32:07.284000,0.059512909723493865
2024-06-27 15:32:07.288000,0.06573887566379784
2024-06-27 15:32:07.292000,0.06647134224501007
2024-06-27 15:32:07.296000,0.0615271928218275
2024-06-27 15:32:07.300000,0.05127266068485625
2024-06-27 15:32:07.304000,0.034151254349020325
2024-06-27 15:32:07.308000,0.012543490203259476
2024-06-27 15:32:07.312000,-0.00375389122871269
2024-06-27 15:32:07.316000,-0.009064273942501373
2024-06-27 15:32:07.320000,-0.007141549166819264
2024-06-27 15:32:07.324000,-0.00466947445522798
2024-06-27 15:32:07.328000,-0.008057132393334554
2024-06-27 15:32:07.332000,-0.02234023072697308
2024-06-27 15:32:07.336000,-0.04577916132576451
2024-06-27 15:32:07.340000,-0.0652810840505402
2024-06-27 15:32:07.344000,-0.06894341695660136
2024-06-27 15:32:07.348000,-0.05365317707379601
2024-06-27 15:32:07.352000,-0.018403222852957334
2024-06-27 15:32:07.356000,0.03488372093023256
2024-06-27 15:32:07.360000,0.1015381798205457
2024-06-27 15:32:07.364000,0.17670756271745103
2024-06-27 15:32:07.368000,0.2520600622596594
2024-06-27 15:32:07.372000,0.3138619300494415
2024-06-27 15:32:07.376000,0.34059696026368796
2024-06-27 15:32:07.380000,0.3066288225599707
2024-06-27 15:32:07.384000,0.20609778428859182
2024-06-27 15:32:07.388000,0.06354147592016114
2024-06-27 15:32:07.392000,-0.08560703167917964
2024-06-27 15:32:07.396000,-0.2091192089360923
2024-06-27 15:32:07.400000,-0.27897820911920895
2024-06-27 15:32:07.404000,-0.28969053286943786
2024-06-27 15:32:07.408000,-0.2605749862662516
2024-06-27 15:32:07.412000,-0.20921076725874382
2024-06-27 15:32:07.416000,-0.1495147408899469
2024-06-27 15:32:07.420000,-0.1006225965940304
2024-06-27 15:32:07.424000,-0.07416224134773851
2024-06-27 15:32:07.428000,-0.06464017579197949
2024-06-27 15:32:07.432000,-0.06061160959531221
2024-06-27 15:32:07.436000,-0.05731550997985717
2024-06-27 15:32:07.440000,-0.05639992675334188
2024-06-27 15:32:07.444000,-0.05878044314228163
2024-06-27 15:32:07.448000,-0.0602453763047061
2024-06-27 15:32:07.452000,-0.05530122688152353
2024-06-27 15:32:07.456000,-0.04403955319538546
2024-06-27 15:32:07.460000,-0.03305255447720198
2024-06-27 15:32:07.464000,-0.027650613440761765
2024-06-27 15:32:07.468000,-0.026918146859549533
2024-06-27 15:32:07.472000,-0.027559055118110236
2024-06-27 15:32:07.476000,-0.026918146859549533
2024-06-27 15:32:07.480000,-0.022889580662882256
2024-06-27 15:32:07.484000,-0.014740889946896173
2024-06-27 15:32:07.488000,-0.005218824391137154
2024-06-27 15:32:07.492000,0.00018311664530305805
2024-06-27 15:32:07.496000,-0.0004577916132576451
2024-06-27 15:32:07.500000,-0.004394799487273393
2024-06-27 15:32:07.504000,-0.007965574070683025
2024-06-27 15:32:07.508000,-0.010803882072880425
2024-06-27 15:32:07.512000,-0.012635048525911005
2024-06-27 15:32:07.516000,-0.012818165171214063
2024-06-27 15:32:07.520000,-0.010529207104925838
2024-06-27 15:32:07.524000,-0.005676616004394799
2024-06-27 15:32:07.528000,0.0014649331624244644
2024-06-27 15:32:07.532000,0.01025453213697125
2024-06-27 15:32:07.536000,0.01776231459439663
2024-06-27 15:32:07.540000,0.02142464750045779
2024-06-27 15:32:07.544000,0.02234023072697308
2024-06-27 15:32:07.548000,0.024903863761215894
2024-06-27 15:32:07.552000,0.031496062992125984
2024-06-27 15:32:07.556000,0.03918696209485442
2024-06-27 15:32:07.560000,0.04513825306720381
2024-06-27 15:32:07.564000,0.050997985716901666
2024-06-27 15:32:07.568000,0.06015381798205457
2024-06-27 15:32:07.572000,0.0744369163156931
2024-06-27 15:32:07.576000,0.0914667643288775
2024-06-27 15:32:07.580000,0.10776414576084967
2024-06-27 15:32:07.584000,0.1233290606116096
2024-06-27 15:32:07.588000,0.13834462552646035
2024-06-27 15:32:07.592000,0.15097967405237137
2024-06-27 15:32:07.596000,0.1602270646401758
2024-06-27 15:32:07.600000,0.16654458890313129
2024-06-27 15:32:07.604000,0.17093938839040468
2024-06-27 15:32:07.608000,0.17460172129646584
2024-06-27 15:32:07.612000,0.17945431239699688
2024-06-27 15:32:07.616000,0.18659586156381616
2024-06-27 15:32:07.620000,0.19199780260025637
2024-06-27 15:32:07.624000,0.1918146859549533
2024-06-27 15:32:07.628000,0.18806079472624063
2024-06-27 15:32:07.632000,0.18412378685222486
2024-06-27 15:32:07.636000,0.18009522065555758
2024-06-27 15:32:07.640000,0.1732283464566929
2024-06-27 15:32:07.644000,0.16077641457608496
2024-06-27 15:32:07.648000,0.13999267533418788
2024-06-27 15:32:07.652000,0.10996154550448636
2024-06-27 15:32:07.656000,0.07562717451016297
2024-06-27 15:32:07.660000,0.046236952939022156
2024-06-27 15:32:07.664000,0.024629188793261307
2024-06-27 15:32:07.668000,0.007965574070683025
2024-06-27 15:32:07.672000,-0.004852591100531038
2024-06-27 15:32:07.676000,-0.015473356528108405
2024-06-27 15:32:07.680000,-0.026643471891594946
2024-06-27 15:32:07.684000,-0.039736312030763596
2024-06-27 15:32:07.688000,-0.052005127266068485
2024-06-27 15:32:07.692000,-0.05905511811023622
2024-06-27 15:32:07.696000,-0.0608862845632668
2024-06-27 15:32:07.700000,-0.06171030946713056
2024-06-27 15:32:07.704000,-0.06464017579197949
2024-06-27 15:32:07.708000,-0.07040835011902583
2024-06-27 15:32:07.712000,-0.07700054934993592
2024-06-27 15:32:07.716000,-0.08148690715986083
2024-06-27 15:32:07.720000,-0.0829518403222853
2024-06-27 15:32:07.724000,-0.08286028199963377
2024-06-27 15:32:07.728000,-0.08249404870902766
2024-06-27 15:32:07.732000,-0.08194469877311848
2024-06-27 15:32:07.736000,-0.08066288225599708
2024-06-27 15:32:07.740000,-0.07828236586705732
2024-06-27 15:32:07.744000,-0.07471159128364768
2024-06-27 15:32:07.748000,-0.07040835011902583
2024-06-27 15:32:07.752000,-0.0652810840505402
2024-06-27 15:32:07.756000,-0.05997070133675151
2024-06-27 15:32:07.760000,-0.05914667643288775
2024-06-27 15:32:07.764000,-0.06418238417872185
2024-06-27 15:32:07.768000,-0.0672038088262223
2024-06-27 15:32:07.772000,-0.06354147592016114
2024-06-27 15:32:07.776000,-0.05905511811023622
2024-06-27 15:32:07.780000,-0.05887200146493316
2024-06-27 15:32:07.784000,-0.060428492950009155
2024-06-27 15:32:07.788000,-0.061344076176524445
2024-06-27 15:32:07.792000,-0.06116095953122139
2024-06-27 15:32:07.796000,-0.060336934627357626
2024-06-27 15:32:07.800000,-0.05997070133675151
2024-06-27 15:32:07.804000,-0.06262589269364585
2024-06-27 15:32:07.808000,-0.06995055850576817
2024-06-27 15:32:07.812000,-0.07928950741622413
2024-06-27 15:32:07.816000,-0.08432521516205824
2024-06-27 15:32:07.820000,-0.08139534883720931
2024-06-27 15:32:07.824000,-0.07333821644387475
2024-06-27 15:32:07.828000,-0.06573887566379784
2024-06-27 15:32:07.832000,-0.06015381798205457
2024-06-27 15:32:07.836000,-0.05401941036440212
2024-06-27 15:32:07.840000,-0.0460538362937191
2024-06-27 15:32:07.844000,-0.03662332906061161
2024-06-27 15:32:07.848000,-0.02719282182750412
2024-06-27 15:32:07.852000,-0.020783739241897088
2024-06-27 15:32:07.856000,-0.018494781175608863
2024-06-27 15:32:07.860000,-0.01858633949826039
2024-06-27 15:32:07.864000,-0.020051272660684856
2024-06-27 15:32:07.868000,-0.0233473722761399
2024-06-27 15:32:07.872000,-0.028383080021973997
2024-06-27 15:32:07.876000,-0.03488372093023256
2024-06-27 15:32:07.880000,-0.042666178355612525
2024-06-27 15:32:07.884000,-0.05072331074894708
2024-06-27 15:32:07.888000,-0.05639992675334188
2024-06-27 15:32:07.892000,-0.05813953488372093
2024-06-27 15:32:07.896000,-0.055759018494781175
2024-06-27 15:32:07.900000,-0.049166819263871085
2024-06-27 15:32:07.904000,-0.04056033693462736
2024-06-27 15:32:07.908000,-0.034334370994323384
2024-06-27 15:32:07.912000,-0.03204541292803516
2024-06-27 15:32:07.916000,-0.03204541292803516
2024-06-27 15:32:07.920000,-0.03351034609045962
2024-06-27 15:32:07.924000,-0.03717267899652078
2024-06-27 15:32:07.928000,-0.042574620032960996
2024-06-27 15:32:07.932000,-0.04761032777879509
2024-06-27 15:32:07.936000,-0.050265519135689433
2024-06-27 15:32:07.940000,-0.050997985716901666
2024-06-27 15:32:07.944000,-0.05163889397546237
2024-06-27 15:32:07.948000,-0.0523713605566746
2024-06-27 15:32:07.952000,-0.05218824391137154
2024-06-27 15:32:07.956000,-0.05081486907159861
2024-06-27 15:32:07.960000,-0.04852591100531038
2024-06-27 15:32:07.964000,-0.047335652810840505
2024-06-27 15:32:07.968000,-0.049258377586522614
2024-06-27 15:32:07.972000,-0.05347006042849295
2024-06-27 15:32:07.976000,-0.05722395165720564
2024-06-27 15:32:07.980000,-0.05823109320637246
2024-06-27 15:32:07.984000,-0.05612525178538729
2024-06-27 15:32:07.988000,-0.053012268815235304
2024-06-27 15:32:07.992000,-0.050173960813037904
2024-06-27 15:32:07.996000,-0.04715253616553745
2024-06-27 15:32:08.000000,-0.044588903131294634
2024-06-27 15:32:08.004000,-0.043490203259476286
2024-06-27 15:32:08.008000,-0.043673319904779344
2024-06-27 15:32:08.012000,-0.04431422816334005
2024-06-27 15:32:08.016000,-0.04477201977659769
2024-06-27 15:32:08.020000,-0.0438564365500824
2024-06-27 15:32:08.024000,-0.040743453579930415
2024-06-27 15:32:08.028000,-0.03644021241530855
2024-06-27 15:32:08.032000,-0.034334370994323384
2024-06-27 15:32:08.036000,-0.0381798205456876
2024-06-27 15:32:08.040000,-0.047244094488188976
2024-06-27 15:32:08.044000,-0.05429408533235671
2024-06-27 15:32:08.048000,-0.053744735396447536
2024-06-27 15:32:08.052000,-0.04843435268265885
2024-06-27 15:32:08.056000,-0.042757736678264054
2024-06-27 15:32:08.060000,-0.037996703900384544
2024-06-27 15:32:08.064000,-0.03360190441311115
2024-06-27 15:32:08.068000,-0.02810840505401941
2024-06-27 15:32:08.072000,-0.023072697308185314
2024-06-27 15:32:08.076000,-0.020875297564548617
2024-06-27 15:32:08.080000,-0.02151620582310932
2024-06-27 15:32:08.084000,-0.02343893059879143
2024-06-27 15:32:08.088000,-0.025086980406518952
2024-06-27 15:32:08.092000,-0.026002563633034242
2024-06-27 15:32:08.096000,-0.02609412195568577
2024-06-27 15:32:08.100000,-0.02627723860098883
2024-06-27 15:32:08.104000,-0.02700970518220106
2024-06-27 15:32:08.108000,-0.02801684673136788
2024-06-27 15:32:08.112000,-0.026826588536898004
2024-06-27 15:32:08.116000,-0.01959348104742721
2024-06-27 15:32:08.120000,-0.004211682841970335
2024-06-27 15:32:08.124000,0.016663614722578282
2024-06-27 15:32:08.128000,0.03543307086614173
2024-06-27 15:32:08.132000,0.042757736678264054
2024-06-27 15:32:08.136000,0.037813587255081486
2024-06-27 15:32:08.140000,0.028749313312580113
2024-06-27 15:32:08.144000,0.023713605566746017
2024-06-27 15:32:08.148000,0.023896722212049075
2024-06-27 15:32:08.152000,0.025544772019776597
2024-06-27 15:32:08.156000,0.024995422083867423
2024-06-27 15:32:08.160000,0.021149972532503204
2024-06-27 15:32:08.164000,0.015564914850759934
2024-06-27 15:32:08.168000,0.011078557040835012
2024-06-27 15:32:08.172000,0.008789598974546786
2024-06-27 15:32:08.176000,0.005768174327046328
2024-06-27 15:32:08.180000,-0.0012818165171214063
2024-06-27 15:32:08.184000,-0.012360373557956418
2024-06-27 15:32:08.188000,-0.024079838857352133
2024-06-27 15:32:08.192000,-0.032411646218641274
2024-06-27 15:32:08.196000,-0.03497527925288409
2024-06-27 15:32:08.200000,-0.03277787950924739
2024-06-27 15:32:08.204000,-0.03369346273576268
2024-06-27 15:32:08.208000,-0.045504486357809924
2024-06-27 15:32:08.212000,-0.05923823475553928
2024-06-27 15:32:08.216000,-0.055209668558872
2024-06-27 15:32:08.220000,-0.020966855887200146
2024-06-27 15:32:08.224000,0.0517304522981139
2024-06-27 15:32:08.228000,0.15629005676616003
2024-06-27 15:32:08.232000,0.25865226149056947
2024-06-27 15:32:08.236000,0.32439113715436735
2024-06-27 15:32:08.240000,0.3388573521333089
2024-06-27 15:32:08.244000,0.30269181468595496
2024-06-27 15:32:08.248000,0.22633217359457974
2024-06-27 15:32:08.252000,0.12296282732100348
2024-06-27 15:32:08.256000,-0.0004577916132576451
2024-06-27 15:32:08.260000,-0.13614722578282365
2024-06-27 15:32:08.264000,-0.25325032045412926
2024-06-27 15:32:08.268000,-0.3107489470792895
2024-06-27 15:32:08.272000,-0.29445156564731734
2024-06-27 15:32:08.276000,-0.22321919062442777
2024-06-27 15:32:08.280000,-0.1377952755905512
2024-06-27 15:32:08.284000,-0.07700054934993592
2024-06-27 15:32:08.288000,-0.052005127266068485
2024-06-27 15:32:08.292000,-0.04934993590917414
2024-06-27 15:32:08.296000,-0.047335652810840505
2024-06-27 15:32:08.300000,-0.03579930415674785
2024-06-27 15:32:08.304000,-0.020234389305987914
2024-06-27 15:32:08.308000,-0.008057132393334554
2024-06-27 15:32:08.312000,-0.0029298663248489287
2024-06-27 15:32:08.316000,-0.004394799487273393
2024-06-27 15:32:08.320000,-0.008698040651895257
2024-06-27 15:32:08.324000,-0.011719465299395715
2024-06-27 15:32:08.328000,-0.01025453213697125
2024-06-27 15:32:08.332000,-0.003570774583409632
2024-06-27 15:32:08.336000,0.007049990844167735
2024-06-27 15:32:08.340000,0.02261490569492767
2024-06-27 15:32:08.344000,0.04120124519318806
2024-06-27 15:32:08.348000,0.05502655191356894
2024-06-27 15:32:08.352000,0.06006225965940304
2024-06-27 15:32:08.356000,0.05969602636879692
2024-06-27 15:32:08.360000,0.057498626625160226
2024-06-27 15:32:08.364000,0.053836293719099065
2024-06-27 15:32:08.368000,0.04861746932796191
2024-06-27 15:32:08.372000,0.04403955319538546
2024-06-27 15:32:08.376000,0.04284929500091558
2024-06-27 15:32:08.380000,0.04522981138985534
2024-06-27 15:32:08.384000,0.05054019410364402
2024-06-27 15:32:08.388000,0.059421351400842336
2024-06-27 15:32:08.392000,0.07040835011902583
2024-06-27 15:32:08.396000,0.07892327412561802
2024-06-27 15:32:08.400000,0.08212781541842154
2024-06-27 15:32:08.404000,0.08194469877311848
2024-06-27 15:32:08.408000,0.08185314045046695
2024-06-27 15:32:08.412000,0.08560703167917964
2024-06-27 15:32:08.416000,0.0958615638161509
2024-06-27 15:32:08.420000,0.1106940120856986
2024-06-27 15:32:08.424000,0.12351217725691266
2024-06-27 15:32:08.428000,0.12918879326130744
2024-06-27 15:32:08.432000,0.1279985350668376
2024-06-27 15:32:08.436000,0.12534334370994324
2024-06-27 15:32:08.440000,0.12689983519501924
2024-06-27 15:32:08.444000,0.13431605932979307
2024-06-27 15:32:08.448000,0.1464017579197949
2024-06-27 15:32:08.452000,0.1598608313495697
2024-06-27 15:32:08.456000,0.17203808826222303
2024-06-27 15:32:08.460000,0.1845815784654825
2024-06-27 15:32:08.464000,0.20170298480131843
2024-06-27 15:32:08.468000,0.22111334920344258
2024-06-27 15:32:08.472000,0.23548800585973265
2024-06-27 15:32:08.476000,0.24235488005859732
2024-06-27 15:32:08.480000,0.24491851309284013
2024-06-27 15:32:08.484000,0.24702435451382532
2024-06-27 15:32:08.488000,0.24913019593481048
2024-06-27 15:32:08.492000,0.24775682109503755
2024-06-27 15:32:08.496000,0.23786852224867241
2024-06-27 15:32:08.500000,0.21882439113715438
2024-06-27 15:32:08.504000,0.19611792711957518
2024-06-27 15:32:08.508000,0.1760666544588903
2024-06-27 15:32:08.512000,0.1580296648965391
2024-06-27 15:32:08.516000,0.14090825856070316
2024-06-27 15:32:08.520000,0.12873100164804982
2024-06-27 15:32:08.524000,0.12168101080388208
2024-06-27 15:32:08.528000,0.11399011170115364
2024-06-27 15:32:08.532000,0.10190441311115181
2024-06-27 15:32:08.536000,0.08707196484160411
2024-06-27 15:32:08.540000,0.07260574986266252
2024-06-27 15:32:08.544000,0.061252517853872916
2024-06-27 15:32:08.548000,0.055759018494781175
2024-06-27 15:32:08.552000,0.05401941036440212
2024-06-27 15:32:08.556000,0.04806811939205274
2024-06-27 15:32:08.560000,0.030305804797656107
2024-06-27 15:32:08.564000,0.005676616004394799
2024-06-27 15:32:08.568000,-0.012543490203259476
2024-06-27 15:32:08.572000,-0.01858633949826039
2024-06-27 15:32:08.576000,-0.017579197949093572
2024-06-27 15:32:08.580000,-0.015564914850759934
2024-06-27 15:32:08.584000,-0.014191540010986999
2024-06-27 15:32:08.588000,-0.01309284013916865
2024-06-27 15:32:08.592000,-0.012635048525911005
2024-06-27 15:32:08.596000,-0.015564914850759934
2024-06-27 15:32:08.600000,-0.02435451382530672
2024-06-27 15:32:08.604000,-0.03625709577000549
2024-06-27 15:32:08.608000,-0.04495513642190075
2024-06-27 15:32:08.612000,-0.04788500274674968
2024-06-27 15:32:08.616000,-0.04788500274674968
2024-06-27 15:32:08.620000,-0.048159677714704266
2024-06-27 15:32:08.624000,-0.049166819263871085
2024-06-27 15:32:08.628000,-0.04971616919978026
2024-06-27 15:32:08.632000,-0.04980772752243179
2024-06-27 15:32:08.636000,-0.051913568943416956
2024-06-27 15:32:08.640000,-0.058597326496978575
2024-06-27 15:32:08.644000,-0.06802783373008607
2024-06-27 15:32:08.648000,-0.07407068302508699
2024-06-27 15:32:08.652000,-0.07132393334554112
2024-06-27 15:32:08.656000,-0.060428492950009155
2024-06-27 15:32:08.660000,-0.04788500274674968
2024-06-27 15:32:08.664000,-0.03671488738326314
2024-06-27 15:32:08.668000,-0.024720747115912836
2024-06-27 15:32:08.672000,-0.014191540010986999
2024-06-27 15:32:08.676000,-0.009522065555759018
2024-06-27 15:32:08.680000,-0.009613623878410547
2024-06-27 15:32:08.684000,-0.011353232008789599
2024-06-27 15:32:08.688000,-0.01409998168833547
2024-06-27 15:32:08.692000,-0.019501922724775682
2024-06-27 15:32:08.696000,-0.02810840505401941
2024-06-27 15:32:08.700000,-0.03808826222303607
2024-06-27 15:32:08.704000,-0.04788500274674968
2024-06-27 15:32:08.708000,-0.05639992675334188
2024-06-27 15:32:08.712000,-0.06116095953122139
2024-06-27 15:32:08.716000,-0.06061160959531221
2024-06-27 15:32:08.720000,-0.05685771836659952
2024-06-27 15:32:08.724000,-0.05246291887932613
2024-06-27 15:32:08.728000,-0.04696941952023439
2024-06-27 15:32:08.732000,-0.039919428676066654
2024-06-27 15:32:08.736000,-0.0325032045412928
2024-06-27 15:32:08.740000,-0.026460355246291888
2024-06-27 15:32:08.744000,-0.02142464750045779
2024-06-27 15:32:08.748000,-0.015564914850759934
2024-06-27 15:32:08.752000,-0.009705182201062076
2024-06-27 15:32:08.756000,-0.0061344076176524445
2024-06-27 15:32:08.760000,-0.00466947445522798
2024-06-27 15:32:08.764000,-0.0031129829701519868
2024-06-27 15:32:08.768000,0.0
2024-06-27 15:32:08.772000,0.0020142830983336385
2024-06-27 15:32:08.776000,-0.004120124519318806
2024-06-27 15:32:08.780000,-0.024812305438564365
2024-06-27 15:32:08.784000,-0.05337850210584142
2024-06-27 15:32:08.788000,-0.07370444973448087
2024-06-27 15:32:08.792000,-0.07782457425379967
2024-06-27 15:32:08.796000,-0.070957700054935
2024-06-27 15:32:08.800000,-0.06253433437099433
2024-06-27 15:32:08.804000,-0.05594213514008423
2024-06-27 15:32:08.808000,-0.04944149423182567
2024-06-27 15:32:08.812000,-0.042757736678264054
2024-06-27 15:32:08.816000,-0.03735579564182384
2024-06-27 15:32:08.820000,-0.03341878776780809
2024-06-27 15:32:08.824000,-0.031312946346822926
2024-06-27 15:32:08.828000,-0.03094671305621681
2024-06-27 15:32:08.832000,-0.030672038088262223
2024-06-27 15:32:08.836000,-0.028566196667277055
2024-06-27 15:32:08.840000,-0.023622047244094488
2024-06-27 15:32:08.844000,-0.01675517304522981
2024-06-27 15:32:08.848000,-0.010712323750228896
2024-06-27 15:32:08.852000,-0.00842336568394067
2024-06-27 15:32:08.856000,-0.00943050723310749
2024-06-27 15:32:08.860000,-0.011902581944698773
2024-06-27 15:32:08.864000,-0.014740889946896173
2024-06-27 15:32:08.868000,-0.01693828969053287
2024-06-27 15:32:08.872000,-0.0176707562717451
2024-06-27 15:32:08.876000,-0.01693828969053287
2024-06-27 15:32:08.880000,-0.015748031496062992
2024-06-27 15:32:08.884000,-0.014832448269547702
2024-06-27 15:32:08.888000,-0.014283098333638528
2024-06-27 15:32:08.892000,-0.014191540010986999
2024-06-27 15:32:08.896000,-0.015290239882805347
2024-06-27 15:32:08.900000,-0.01858633949826039
2024-06-27 15:32:08.904000,-0.023072697308185314
2024-06-27 15:32:08.908000,-0.0261856802783373
2024-06-27 15:32:08.912000,-0.026735030214246475
2024-06-27 15:32:08.916000,-0.02536165537447354
2024-06-27 15:32:08.920000,-0.023805163889397546
2024-06-27 15:32:08.924000,-0.02243178904962461
2024-06-27 15:32:08.928000,-0.021058414209851675
2024-06-27 15:32:08.932000,-0.01968503937007874
2024-06-27 15:32:08.936000,-0.019044131111518037
2024-06-27 15:32:08.940000,-0.019410364402124153
2024-06-27 15:32:08.944000,-0.02069218091924556
2024-06-27 15:32:08.948000,-0.02142464750045779
2024-06-27 15:32:08.952000,-0.01693828969053287
2024-06-27 15:32:08.956000,-0.0029298663248489287
2024-06-27 15:32:08.960000,0.016388939754623695
2024-06-27 15:32:08.964000,0.03076359641091375
2024-06-27 15:32:08.968000,0.03341878776780809
2024-06-27 15:32:08.972000,0.02545321369712507
2024-06-27 15:32:08.976000,0.01117011536348654
2024-06-27 15:32:08.980000,-0.005218824391137154
2024-06-27 15:32:08.984000,-0.02060062259659403
2024-06-27 15:32:08.988000,-0.03213697125068669
2024-06-27 15:32:08.992000,-0.0381798205456876
2024-06-27 15:32:08.996000,-0.04010254532136971
2024-06-27 15:32:09.000000,-0.040651895257278886
2024-06-27 15:32:09.004000,-0.04147592016114265
2024-06-27 15:32:09.008000,-0.04229994506500641
2024-06-27 15:32:09.012000,-0.04211682841970335
2024-06-27 15:32:09.016000,-0.039736312030763596
2024-06-27 15:32:09.020000,-0.035066837575535616
2024-06-27 15:32:09.024000,-0.031404504669474455
2024-06-27 15:32:09.028000,-0.0381798205456876
2024-06-27 15:32:09.032000,-0.06354147592016114
2024-06-27 15:32:09.036000,-0.09164988097418056
2024-06-27 15:32:09.040000,-0.08624793993774034
2024-06-27 15:32:09.044000,-0.023072697308185314
2024-06-27 15:32:09.048000,0.08807910639077092
2024-06-27 15:32:09.052000,0.20737960080571324
2024-06-27 15:32:09.056000,0.2934444240981505
2024-06-27 15:32:09.060000,0.3270463285112617
2024-06-27 15:32:09.064000,0.30269181468595496
2024-06-27 15:32:09.068000,0.22074711591283647
2024-06-27 15:32:09.072000,0.09631935542940853
2024-06-27 15:32:09.076000,-0.04019410364402124
2024-06-27 15:32:09.080000,-0.16535433070866143
2024-06-27 15:32:09.084000,-0.257004211682842
2024-06-27 15:32:09.088000,-0.2876762497711042
2024-06-27 15:32:09.092000,-0.2604834279436001
2024-06-27 15:32:09.096000,-0.20875297564548617
2024-06-27 15:32:09.100000,-0.15894524812305438
2024-06-27 15:32:09.104000,-0.1258011353232009
2024-06-27 15:32:09.108000,-0.11078557040835012
2024-06-27 15:32:09.112000,-0.09998168833546969
2024-06-27 15:32:09.116000,-0.08130379051455777
2024-06-27 15:32:09.120000,-0.05777330159311481
2024-06-27 15:32:09.124000,-0.0403772202893243
2024-06-27 15:32:09.128000,-0.03360190441311115
2024-06-27 15:32:09.132000,-0.03341878776780809
2024-06-27 15:32:09.136000,-0.0347006042849295
2024-06-27 15:32:09.140000,-0.0347006042849295
2024-06-27 15:32:09.144000,-0.03259476286394433
2024-06-27 15:32:09.148000,-0.028749313312580113
2024-06-27 15:32:09.152000,-0.02545321369712507
2024-06-27 15:32:09.156000,-0.02426295550265519
2024-06-27 15:32:09.160000,-0.02435451382530672
2024-06-27 15:32:09.164000,-0.023713605566746017
2024-06-27 15:32:09.168000,-0.020875297564548617
2024-06-27 15:32:09.172000,-0.01602270646401758
2024-06-27 15:32:09.176000,-0.00943050723310749
2024-06-27 15:32:09.180000,-0.0024720747115912836
2024-06-27 15:32:09.184000,0.0013733748397729353
2024-06-27 15:32:09.188000,-0.0005493499359091741
2024-06-27 15:32:09.192000,-0.006775315876213148
2024-06-27 15:32:09.196000,-0.011536348654092657
2024-06-27 15:32:09.200000,-0.014466214978941586
2024-06-27 15:32:09.204000,-0.018403222852957334
2024-06-27 15:32:09.208000,-0.01959348104742721
2024-06-27 15:32:09.212000,-0.010986998718183483
2024-06-27 15:32:09.216000,0.007049990844167735
2024-06-27 15:32:09.220000,0.026918146859549533
2024-06-27 15:32:09.224000,0.039919428676066654
2024-06-27 15:32:09.228000,0.043490203259476286
2024-06-27 15:32:09.232000,0.04147592016114265
2024-06-27 15:32:09.236000,0.03836293719099066
2024-06-27 15:32:09.240000,0.03634865409265702
2024-06-27 15:32:09.244000,0.03625709577000549
2024-06-27 15:32:09.248000,0.03918696209485442
2024-06-27 15:32:09.252000,0.04376487822743087
2024-06-27 15:32:09.256000,0.04687786119758286
2024-06-27 15:32:09.260000,0.04788500274674968
2024-06-27 15:32:09.264000,0.051089544039553195
2024-06-27 15:32:09.268000,0.06161875114447903
2024-06-27 15:32:09.272000,0.07947262406152719
2024-06-27 15:32:09.276000,0.09888298846365134
2024-06-27 15:32:09.280000,0.1138985533785021
2024-06-27 15:32:09.284000,0.12094854422266985
2024-06-27 15:32:09.288000,0.12122321919062443
2024-06-27 15:32:09.292000,0.12039919428676067
2024-06-27 15:32:09.296000,0.1258926936458524
2024-06-27 15:32:09.300000,0.14237319172312762
2024-06-27 15:32:09.304000,0.16535433070866143
2024-06-27 15:32:09.308000,0.18311664530305805
2024-06-27 15:32:09.312000,0.18778611975828602
2024-06-27 15:32:09.316000,0.18284197033510347
2024-06-27 15:32:09.320000,0.17533418787767807
2024-06-27 15:32:09.324000,0.16553744735396447
2024-06-27 15:32:09.328000,0.1479582494048709
2024-06-27 15:32:09.332000,0.12223036073979125
2024-06-27 15:32:09.336000,0.09696026368796924
2024-06-27 15:32:09.340000,0.08093755722395166
2024-06-27 15:32:09.344000,0.07251419154001099
2024-06-27 15:32:09.348000,0.06317524262955503
2024-06-27 15:32:09.352000,0.04596227797106757
2024-06-27 15:32:09.356000,0.019135689434169566
2024-06-27 15:32:09.360000,-0.00933894891045596
2024-06-27 15:32:09.364000,-0.028749313312580113
2024-06-27 15:32:09.368000,-0.036165537447353964
2024-06-27 15:32:09.372000,-0.03744735396447537
2024-06-27 15:32:09.376000,-0.03808826222303607
2024-06-27 15:32:09.380000,-0.039003845449551364
2024-06-27 15:32:09.384000,-0.03937007874015748
2024-06-27 15:32:09.388000,-0.03937007874015748
2024-06-27 15:32:09.392000,-0.03964475370811207
2024-06-27 15:32:09.396000,-0.04120124519318806
2024-06-27 15:32:09.400000,-0.04468046145394616
2024-06-27 15:32:09.404000,-0.049075260941219556
2024-06-27 15:32:09.408000,-0.052005127266068485
2024-06-27 15:32:09.412000,-0.05273759384728072
2024-06-27 15:32:09.416000,-0.052005127266068485
2024-06-27 15:32:09.420000,-0.05090642739425014
2024-06-27 15:32:09.424000,-0.04971616919978026
2024-06-27 15:32:09.428000,-0.049166819263871085
2024-06-27 15:32:09.432000,-0.05090642739425014
2024-06-27 15:32:09.436000,-0.05704083501190258
2024-06-27 15:32:09.440000,-0.06885185863394983
2024-06-27 15:32:09.444000,-0.0823109320637246
2024-06-27 15:32:09.448000,-0.0899102728438015
2024-06-27 15:32:09.452000,-0.08762131477751328
2024-06-27 15:32:09.456000,-0.07773301593114815
2024-06-27 15:32:09.460000,-0.06619666727705549
2024-06-27 15:32:09.464000,-0.05823109320637246
2024-06-27 15:32:09.468000,-0.05365317707379601
2024-06-27 15:32:09.472000,-0.04788500274674968
2024-06-27 15:32:09.476000,-0.0381798205456876
2024-06-27 15:32:09.480000,-0.027742171763413294
2024-06-27 15:32:09.484000,-0.022706464017579198
2024-06-27 15:32:09.488000,-0.023622047244094488
2024-06-27 15:32:09.492000,-0.025544772019776597
2024-06-27 15:32:09.496000,-0.024995422083867423
2024-06-27 15:32:09.500000,-0.023805163889397546
2024-06-27 15:32:09.504000,-0.02545321369712507
2024-06-27 15:32:09.508000,-0.031221388024171397
2024-06-27 15:32:09.512000,-0.03937007874015748
2024-06-27 15:32:09.516000,-0.04660318622962827
2024-06-27 15:32:09.520000,-0.05090642739425014
2024-06-27 15:32:09.524000,-0.05273759384728072
2024-06-27 15:32:09.528000,-0.051913568943416956
2024-06-27 15:32:09.532000,-0.047335652810840505
2024-06-27 15:32:09.536000,-0.03845449551364219
2024-06-27 15:32:09.540000,-0.02536165537447354
2024-06-27 15:32:09.544000,-0.009705182201062076
2024-06-27 15:32:09.548000,0.0025636330342428126
2024-06-27 15:32:09.552000,0.005768174327046328
2024-06-27 15:32:09.556000,0.0009155832265152902
2024-06-27 15:32:09.560000,-0.007782457425379967
2024-06-27 15:32:09.564000,-0.017487639626442043
2024-06-27 15:32:09.568000,-0.024171397180003662
2024-06-27 15:32:09.572000,-0.025636330342428126
2024-06-27 15:32:09.576000,-0.023896722212049075
2024-06-27 15:32:09.580000,-0.02160776414576085
2024-06-27 15:32:09.584000,-0.019868156015381798
2024-06-27 15:32:09.588000,-0.019227247756821095
2024-06-27 15:32:09.592000,-0.019227247756821095
2024-06-27 15:32:09.596000,-0.019501922724775682
2024-06-27 15:32:09.600000,-0.019868156015381798
2024-06-27 15:32:09.604000,-0.020234389305987914
2024-06-27 15:32:09.608000,-0.019501922724775682
2024-06-27 15:32:09.612000,-0.015564914850759934
2024-06-27 15:32:09.616000,-0.007049990844167735
2024-06-27 15:32:09.620000,0.003479216260758103
2024-06-27 15:32:09.624000,0.010895440395531954
2024-06-27 15:32:09.628000,0.011902581944698773
2024-06-27 15:32:09.632000,0.007416224134773851
2024-06-27 15:32:09.636000,-0.0008240249038637612
2024-06-27 15:32:09.640000,-0.013459073429774766
2024-06-27 15:32:09.644000,-0.029298663248489287
2024-06-27 15:32:09.648000,-0.04202527009705182
2024-06-27 15:32:09.652000,-0.04761032777879509
2024-06-27 15:32:09.656000,-0.04843435268265885
2024-06-27 15:32:09.660000,-0.04678630287493133
2024-06-27 15:32:09.664000,-0.04184215345174876
2024-06-27 15:32:09.668000,-0.033327229445156564
2024-06-27 15:32:09.672000,-0.02426295550265519
2024-06-27 15:32:09.676000,-0.015656473173411463
2024-06-27 15:32:09.680000,-0.006958432521516206
2024-06-27 15:32:09.684000,-0.003662332906061161
2024-06-27 15:32:09.688000,-0.011078557040835012
2024-06-27 15:32:09.692000,-0.02627723860098883
2024-06-27 15:32:09.696000,-0.04376487822743087
2024-06-27 15:32:09.700000,-0.05914667643288775
2024-06-27 15:32:09.704000,-0.06839406702069219
2024-06-27 15:32:09.708000,-0.069401208569859
2024-06-27 15:32:09.712000,-0.06546420069584326
2024-06-27 15:32:09.716000,-0.060520051272660684
2024-06-27 15:32:09.720000,-0.054843435268265885
2024-06-27 15:32:09.724000,-0.04761032777879509
2024-06-27 15:32:09.728000,-0.03772202893242996
2024-06-27 15:32:09.732000,-0.024903863761215894
2024-06-27 15:32:09.736000,-0.01217725691265336
2024-06-27 15:32:09.740000,-0.005035707745834096
2024-06-27 15:32:09.744000,-0.006500640908258561
2024-06-27 15:32:09.748000,-0.013916865043032411
2024-06-27 15:32:09.752000,-0.021333089177806262
2024-06-27 15:32:09.756000,-0.02517853872917048
2024-06-27 15:32:09.760000,-0.023622047244094488
2024-06-27 15:32:09.764000,-0.016663614722578282
2024-06-27 15:32:09.768000,-0.00750778245742538
2024-06-27 15:32:09.772000,0.0006409082585607032
2024-06-27 15:32:09.776000,0.0061344076176524445
2024-06-27 15:32:09.780000,0.008789598974546786
2024-06-27 15:32:09.784000,0.00933894891045596
2024-06-27 15:32:09.788000,0.007782457425379967
2024-06-27 15:32:09.792000,0.0021973997436366965
2024-06-27 15:32:09.796000,-0.007874015748031496
2024-06-27 15:32:09.800000,-0.021333089177806262
2024-06-27 15:32:09.804000,-0.03488372093023256
2024-06-27 15:32:09.808000,-0.045504486357809924
2024-06-27 15:32:09.812000,-0.05273759384728072
2024-06-27 15:32:09.816000,-0.0580479765610694
2024-06-27 15:32:09.820000,-0.06061160959531221
2024-06-27 15:32:09.824000,-0.05630836843069035
2024-06-27 15:32:09.828000,-0.045504486357809924
2024-06-27 15:32:09.832000,-0.03872917048159678
2024-06-27 15:32:09.836000,-0.042757736678264054
2024-06-27 15:32:09.840000,-0.052829152169932246
2024-06-27 15:32:09.844000,-0.0602453763047061
2024-06-27 15:32:09.848000,-0.04989928584508332
2024-06-27 15:32:09.852000,-0.005493499359091741
2024-06-27 15:32:09.856000,0.07407068302508699
2024-06-27 15:32:09.860000,0.17258743819813221
2024-06-27 15:32:09.864000,0.26304706097784286
2024-06-27 15:32:09.868000,0.3174327046328511
2024-06-27 15:32:09.872000,0.3160593297930782
2024-06-27 15:32:09.876000,0.25132759567844715
2024-06-27 15:32:09.880000,0.1337667093938839
2024-06-27 15:32:09.884000,-0.007141549166819264
2024-06-27 15:32:09.888000,-0.13761215894524811
2024-06-27 15:32:09.892000,-0.23475553927852041
2024-06-27 15:32:09.896000,-0.2820911920893609
2024-06-27 15:32:09.900000,-0.27302691814685953
2024-06-27 15:32:09.904000,-0.22578282365867058
2024-06-27 15:32:09.908000,-0.16865043032411647
2024-06-27 15:32:09.912000,-0.12058231093206373
2024-06-27 15:32:09.916000,-0.09238234755539279
2024-06-27 15:32:09.920000,-0.08212781541842154
2024-06-27 15:32:09.924000,-0.0788317158029665
2024-06-27 15:32:09.928000,-0.0744369163156931
2024-06-27 15:32:09.932000,-0.06619666727705549
2024-06-27 15:32:09.936000,-0.05530122688152353
2024-06-27 15:32:09.940000,-0.04495513642190075
2024-06-27 15:32:09.944000,-0.03808826222303607
2024-06-27 15:32:09.948000,-0.035249954220838674
2024-06-27 15:32:09.952000,-0.03488372093023256
2024-06-27 15:32:09.956000,-0.03497527925288409
2024-06-27 15:32:09.960000,-0.034151254349020325
2024-06-27 15:32:09.964000,-0.03259476286394433
2024-06-27 15:32:09.968000,-0.032228529573338216
2024-06-27 15:32:09.972000,-0.034151254349020325
2024-06-27 15:32:09.976000,-0.03589086247939938
2024-06-27 15:32:09.980000,-0.035158395898187145
2024-06-27 15:32:09.984000,-0.03195385460538363
2024-06-27 15:32:09.988000,-0.026826588536898004
2024-06-27 15:32:09.992000,-0.0205090642739425
2024-06-27 15:32:09.996000,-0.015381798205456876
2024-06-27 15:32:10.000000,-0.014283098333638528
2024-06-27 15:32:10.004000,-0.01785387291704816
2024-06-27 15:32:10.008000,-0.02426295550265519
2024-06-27 15:32:10.012000,-0.030580479765610694
2024-06-27 15:32:10.016000,-0.034059696026368796
2024-06-27 15:32:10.020000,-0.034334370994323384
2024-06-27 15:32:10.024000,-0.031221388024171397
2024-06-27 15:32:10.028000,-0.024903863761215894
2024-06-27 15:32:10.032000,-0.016297381431972166
2024-06-27 15:32:10.036000,-0.006683757553561619
2024-06-27 15:32:10.040000,0.0018311664530305805
2024-06-27 15:32:10.044000,0.007324665812122322
2024-06-27 15:32:10.048000,0.01025453213697125
2024-06-27 15:32:10.052000,0.013550631752426295
2024-06-27 15:32:10.056000,0.01886101446621498
2024-06-27 15:32:10.060000,0.023255813953488372
2024-06-27 15:32:10.064000,0.02343893059879143
2024-06-27 15:32:10.068000,0.02169932246841238
2024-06-27 15:32:10.072000,0.02234023072697308
2024-06-27 15:32:10.076000,0.026918146859549533
2024-06-27 15:32:10.080000,0.03744735396447537
2024-06-27 15:32:10.084000,0.05685771836659952
2024-06-27 15:32:10.088000,0.0801135323200879
2024-06-27 15:32:10.092000,0.09741805530122688
2024-06-27 15:32:10.096000,0.10602453763047061
2024-06-27 15:32:10.100000,0.11023622047244094
2024-06-27 15:32:10.104000,0.11472257828236587
2024-06-27 15:32:10.108000,0.1220472440944882
2024-06-27 15:32:10.112000,0.1315693096502472
2024-06-27 15:32:10.116000,0.1397180003662333
2024-06-27 15:32:10.120000,0.1447537081120674
2024-06-27 15:32:10.124000,0.14841604101812855
2024-06-27 15:32:10.128000,0.15162058231093206
2024-06-27 15:32:10.132000,0.1533601904413111
2024-06-27 15:32:10.136000,0.1517121406335836
2024-06-27 15:32:10.140000,0.14466214978941586
2024-06-27 15:32:10.144000,0.13138619300494414
2024-06-27 15:32:10.148000,0.11215894524812306
2024-06-27 15:32:10.152000,0.08716352316425563
2024-06-27 15:32:10.156000,0.05795641823841787
2024-06-27 15:32:10.160000,0.029390221571140816
2024-06-27 15:32:10.164000,0.007233107489470793
2024-06-27 15:32:10.168000,-0.005401941036440212
2024-06-27 15:32:10.172000,-0.01025453213697125
2024-06-27 15:32:10.176000,-0.011536348654092657
2024-06-27 15:32:10.180000,-0.012818165171214063
2024-06-27 15:32:10.184000,-0.01602270646401758
2024-06-27 15:32:10.188000,-0.019868156015381798
2024-06-27 15:32:10.192000,-0.021241530855154733
2024-06-27 15:32:10.196000,-0.020142830983336385
2024-06-27 15:32:10.200000,-0.01867789782091192
2024-06-27 15:32:10.204000,-0.017579197949093572
2024-06-27 15:32:10.208000,-0.017579197949093572
2024-06-27 15:32:10.212000,-0.020875297564548617
2024-06-27 15:32:10.216000,-0.029481779893792345
2024-06-27 15:32:10.220000,-0.04056033693462736
2024-06-27 15:32:10.224000,-0.04898370261856803
2024-06-27 15:32:10.228000,-0.05347006042849295
2024-06-27 15:32:10.232000,-0.05594213514008423
2024-06-27 15:32:10.236000,-0.05813953488372093
2024-06-27 15:32:10.240000,-0.05969602636879692
2024-06-27 15:32:10.244000,-0.06097784288591833
2024-06-27 15:32:10.248000,-0.06344991759750962
2024-06-27 15:32:10.252000,-0.06885185863394983
2024-06-27 15:32:10.256000,-0.07809924922175426
2024-06-27 15:32:10.260000,-0.0886284563266801
2024-06-27 15:32:10.264000,-0.09531221388024172
2024-06-27 15:32:10.268000,-0.09677714704266618
2024-06-27 15:32:10.272000,-0.09577000549349936
2024-06-27 15:32:10.276000,-0.09485442226698407
2024-06-27 15:32:10.280000,-0.09421351400842337
2024-06-27 15:32:10.284000,-0.09302325581395349
2024-06-27 15:32:10.288000,-0.09238234755539279
2024-06-27 15:32:10.292000,-0.09476286394433255
2024-06-27 15:32:10.296000,-0.1012635048525911
2024-06-27 15:32:10.300000,-0.10730635414759201
2024-06-27 15:32:10.304000,-0.1082219373741073
2024-06-27 15:32:10.308000,-0.10272843801501556
2024-06-27 15:32:10.312000,-0.09247390587804431
2024-06-27 15:32:10.316000,-0.08194469877311848
2024-06-27 15:32:10.320000,-0.07480314960629922
2024-06-27 15:32:10.324000,-0.07013367515107123
2024-06-27 15:32:10.328000,-0.06610510895440395
2024-06-27 15:32:10.332000,-0.062351217725691264
2024-06-27 15:32:10.336000,-0.05914667643288775
2024-06-27 15:32:10.340000,-0.05713239333455411
2024-06-27 15:32:10.344000,-0.05603369346273576
2024-06-27 15:32:10.348000,-0.05411096868705365
2024-06-27 15:32:10.352000,-0.050997985716901666
2024-06-27 15:32:10.356000,-0.047427211133492034
2024-06-27 15:32:10.360000,-0.044588903131294634
2024-06-27 15:32:10.364000,-0.04284929500091558
2024-06-27 15:32:10.368000,-0.039919428676066654
2024-06-27 15:32:10.372000,-0.03277787950924739
2024-06-27 15:32:10.376000,-0.02243178904962461
2024-06-27 15:32:10.380000,-0.012451931880607947
2024-06-27 15:32:10.384000,-0.004028566196667277
2024-06-27 15:32:10.388000,0.0024720747115912836
2024-06-27 15:32:10.392000,0.007141549166819264
2024-06-27 15:32:10.396000,0.010986998718183483
2024-06-27 15:32:10.400000,0.015381798205456876
2024-06-27 15:32:10.404000,0.01977659769273027
2024-06-27 15:32:10.408000,0.0233473722761399
2024-06-27 15:32:10.412000,0.026460355246291888
2024-06-27 15:32:10.416000,0.03158762131477751
2024-06-27 15:32:10.420000,0.04028566196667277
2024-06-27 15:32:10.424000,0.05136421900750778
2024-06-27 15:32:10.428000,0.062351217725691264
2024-06-27 15:32:10.432000,0.069401208569859
2024-06-27 15:32:10.436000,0.06857718366599524
2024-06-27 15:32:10.440000,0.06079472624061527
2024-06-27 15:32:10.444000,0.0523713605566746
2024-06-27 15:32:10.448000,0.05035707745834096
2024-06-27 15:32:10.452000,0.057590184947811755
2024-06-27 15:32:10.456000,0.06995055850576817
2024-06-27 15:32:10.460000,0.08020509064273942
2024-06-27 15:32:10.464000,0.08597326496978576
2024-06-27 15:32:10.468000,0.0901849478117561
2024-06-27 15:32:10.472000,0.0936641640725142
2024-06-27 15:32:10.476000,0.09421351400842337
2024-06-27 15:32:10.480000,0.09229078923274125
2024-06-27 15:32:10.484000,0.08981871452114998
2024-06-27 15:32:10.488000,0.0877128731001648
2024-06-27 15:32:10.492000,0.08469144845266435
2024-06-27 15:32:10.496000,0.08020509064273942
2024-06-27 15:32:10.500000,0.08130379051455777
2024-06-27 15:32:10.504000,0.09421351400842337
2024-06-27 15:32:10.508000,0.10986998718183483
2024-06-27 15:32:10.512000,0.11408167002380516
2024-06-27 15:32:10.516000,0.10364402124153085
2024-06-27 15:32:10.520000,0.08698040651895257
2024-06-27 15:32:10.524000,0.07516938289690533
2024-06-27 15:32:10.528000,0.07278886650796558
2024-06-27 15:32:10.532000,0.07599340780076909
2024-06-27 15:32:10.536000,0.07874015748031496
2024-06-27 15:32:10.540000,0.07819080754440579
2024-06-27 15:32:10.544000,0.0766343160593298
2024-06-27 15:32:10.548000,0.07690899102728438
2024-06-27 15:32:10.552000,0.07892327412561802
2024-06-27 15:32:10.556000,0.07993041567478484
2024-06-27 15:32:10.560000,0.07874015748031496
2024-06-27 15:32:10.564000,0.07764145760849661
2024-06-27 15:32:10.568000,0.07983885735213331
2024-06-27 15:32:10.572000,0.0845083318073613
2024-06-27 15:32:10.576000,0.0892693645852408
2024-06-27 15:32:10.580000,0.09329793078190808
2024-06-27 15:32:10.584000,0.09705182201062076
2024-06-27 15:32:10.588000,0.09897454678630288
2024-06-27 15:32:10.592000,0.09641091375206007
2024-06-27 15:32:10.596000,0.08881157297198315
2024-06-27 15:32:10.600000,0.07956418238417873
2024-06-27 15:32:10.604000,0.07123237502288958
2024-06-27 15:32:10.608000,0.06473173411463103
2024-06-27 15:32:10.612000,0.06299212598425197
2024-06-27 15:32:10.616000,0.06674601721296466
2024-06-27 15:32:10.620000,0.07562717451016297
2024-06-27 15:32:10.624000,0.08963559787584692
2024-06-27 15:32:10.628000,0.10217908807910639
2024-06-27 15:32:10.632000,0.10236220472440945
2024-06-27 15:32:10.636000,0.08597326496978576
2024-06-27 15:32:10.640000,0.05896355978758469
2024-06-27 15:32:10.644000,0.031129829701519868
2024-06-27 15:32:10.648000,0.007324665812122322
2024-06-27 15:32:10.652000,-0.009796740523713605
2024-06-27 15:32:10.656000,-0.016663614722578282
2024-06-27 15:32:10.660000,-0.015381798205456876
2024-06-27 15:32:10.664000,-0.013367515107123237
2024-06-27 15:32:10.668000,-0.012451931880607947
2024-06-27 15:32:10.672000,-0.008972715619849844
2024-06-27 15:32:10.676000,-0.008240249038637612
2024-06-27 15:32:10.680000,-0.017487639626442043
2024-06-27 15:32:10.684000,-0.028657754989928584
2024-06-27 15:32:10.688000,-0.02169932246841238
2024-06-27 15:32:10.692000,0.019135689434169566
2024-06-27 15:32:10.696000,0.0921076725874382
2024-06-27 15:32:10.700000,0.18119392052737593
2024-06-27 15:32:10.704000,0.263413294268449
2024-06-27 15:32:10.708000,0.3166086797289874
2024-06-27 15:32:10.712000,0.32988463651345906
2024-06-27 15:32:10.716000,0.29545870719648415
2024-06-27 15:32:10.720000,0.20811206738692548
2024-06-27 15:32:10.724000,0.08414209851675518
2024-06-27 15:32:10.728000,-0.048342794360007324
2024-06-27 15:32:10.732000,-0.16672770554843436
2024-06-27 15:32:10.736000,-0.2485808459989013
2024-06-27 15:32:10.740000,-0.2707379600805713
2024-06-27 15:32:10.744000,-0.23210034792162607
2024-06-27 15:32:10.748000,-0.16599523896722213
2024-06-27 15:32:10.752000,-0.10767258743819813
2024-06-27 15:32:10.756000,-0.07132393334554112
2024-06-27 15:32:10.760000,-0.05823109320637246
2024-06-27 15:32:10.764000,-0.058414209851675516
2024-06-27 15:32:10.768000,-0.058688884819630104
2024-06-27 15:32:10.772000,-0.05548434352682659
2024-06-27 15:32:10.776000,-0.048342794360007324
2024-06-27 15:32:10.780000,-0.03213697125068669
2024-06-27 15:32:10.784000,-0.006683757553561619
2024-06-27 15:32:10.788000,0.015107123237502289
2024-06-27 15:32:10.792000,0.0205090642739425
2024-06-27 15:32:10.796000,0.00842336568394067
2024-06-27 15:32:10.800000,-0.010803882072880425
2024-06-27 15:32:10.804000,-0.02444607214795825
2024-06-27 15:32:10.808000,-0.026551913568943417
2024-06-27 15:32:10.812000,-0.02060062259659403
2024-06-27 15:32:10.816000,-0.01309284013916865
2024-06-27 15:32:10.820000,-0.007233107489470793
2024-06-27 15:32:10.824000,-0.004577916132576451
2024-06-27 15:32:10.828000,-0.007599340780076909
2024-06-27 15:32:10.832000,-0.01583958981871452
2024-06-27 15:32:10.836000,-0.023622047244094488
2024-06-27 15:32:10.840000,-0.027559055118110236
2024-06-27 15:32:10.844000,-0.02911554660318623
2024-06-27 15:32:10.848000,-0.029664896539095403
2024-06-27 15:32:10.852000,-0.02819996337667094
2024-06-27 15:32:10.856000,-0.021058414209851675
2024-06-27 15:32:10.860000,-0.0062259659403039735
2024-06-27 15:32:10.864000,0.009979857169016663
2024-06-27 15:32:10.868000,0.01693828969053287
2024-06-27 15:32:10.872000,0.012451931880607947
2024-06-27 15:32:10.876000,0.004028566196667277
2024-06-27 15:32:10.880000,-0.0019227247756821095
2024-06-27 15:32:10.884000,-0.004852591100531038
2024-06-27 15:32:10.888000,-0.005493499359091741
2024-06-27 15:32:10.892000,-0.0021058414209851675
2024-06-27 15:32:10.896000,0.008789598974546786
2024-06-27 15:32:10.900000,0.027650613440761765
2024-06-27 15:32:10.904000,0.04761032777879509
2024-06-27 15:32:10.908000,0.06207654275773668
2024-06-27 15:32:10.912000,0.07150704999084417
2024-06-27 15:32:10.916000,0.0788317158029665
2024-06-27 15:32:10.920000,0.08432521516205824
2024-06-27 15:32:10.924000,0.09000183116645304
2024-06-27 15:32:10.928000,0.09989013001281817
2024-06-27 15:32:10.932000,0.11279985350668376
2024-06-27 15:32:10.936000,0.12223036073979125
2024-06-27 15:32:10.940000,0.12488555209668559
2024-06-27 15:32:10.944000,0.12479399377403406
2024-06-27 15:32:10.948000,0.1284563266800952
2024-06-27 15:32:10.952000,0.13871085881706646
2024-06-27 15:32:10.956000,0.1511627906976744
2024-06-27 15:32:10.960000,0.16224134773850943
2024-06-27 15:32:10.964000,0.17075627174510163
2024-06-27 15:32:10.968000,0.17103094671305621
2024-06-27 15:32:10.972000,0.16068485625343343
2024-06-27 15:32:10.976000,0.14402124153085516
2024-06-27 15:32:10.980000,0.12378685222486724
2024-06-27 15:32:10.984000,0.10172129646584875
2024-06-27 15:32:10.988000,0.08221937374107306
2024-06-27 15:32:10.992000,0.06637978392235855
2024-06-27 15:32:10.996000,0.05218824391137154
2024-06-27 15:32:11.000000,0.04110968687053653
2024-06-27 15:32:11.004000,0.03625709577000549
2024-06-27 15:32:11.008000,0.03589086247939938
2024-06-27 15:32:11.012000,0.03076359641091375
2024-06-27 15:32:11.016000,0.012085698590001831
2024-06-27 15:32:11.020000,-0.017396081303790514
2024-06-27 15:32:11.024000,-0.04486357809924922
2024-06-27 15:32:11.028000,-0.06079472624061527
2024-06-27 15:32:11.032000,-0.06409082585607032
2024-06-27 15:32:11.036000,-0.05823109320637246
2024-06-27 15:32:11.040000,-0.045321369712506866
2024-06-27 15:32:11.044000,-0.03003112982970152
2024-06-27 15:32:11.048000,-0.022889580662882256
2024-06-27 15:32:11.052000,-0.029207104925837758
2024-06-27 15:32:11.056000,-0.04211682841970335
2024-06-27 15:32:11.060000,-0.05319538546053836
2024-06-27 15:32:11.064000,-0.05878044314228163
2024-06-27 15:32:11.068000,-0.05978758469144845
2024-06-27 15:32:11.072000,-0.05932979307819081
2024-06-27 15:32:11.076000,-0.059421351400842336
2024-06-27 15:32:11.080000,-0.0602453763047061
2024-06-27 15:32:11.084000,-0.06079472624061527
2024-06-27 15:32:11.088000,-0.06079472624061527
2024-06-27 15:32:11.092000,-0.060520051272660684
2024-06-27 15:32:11.096000,-0.05987914301409998
2024-06-27 15:32:11.100000,-0.05612525178538729
2024-06-27 15:32:11.104000,-0.04687786119758286
2024-06-27 15:32:11.108000,-0.03625709577000549
2024-06-27 15:32:11.112000,-0.03305255447720198
2024-06-27 15:32:11.116000,-0.0432155282915217
2024-06-27 15:32:11.120000,-0.06180186778978209
2024-06-27 15:32:11.124000,-0.0763596410913752
2024-06-27 15:32:11.128000,-0.08139534883720931
2024-06-27 15:32:11.132000,-0.08112067386925471
2024-06-27 15:32:11.136000,-0.08029664896539096
2024-06-27 15:32:11.140000,-0.08066288225599708
2024-06-27 15:32:11.144000,-0.08157846548251237
2024-06-27 15:32:11.148000,-0.0823109320637246
2024-06-27 15:32:11.152000,-0.08258560703167918
2024-06-27 15:32:11.156000,-0.08102911554660319
2024-06-27 15:32:11.160000,-0.0766343160593298
2024-06-27 15:32:11.164000,-0.07059146676432888
2024-06-27 15:32:11.168000,-0.06619666727705549
2024-06-27 15:32:11.172000,-0.06491485075993408
2024-06-27 15:32:11.176000,-0.06583043398644937
2024-06-27 15:32:11.180000,-0.06711225050357078
2024-06-27 15:32:11.184000,-0.06793627540743453
2024-06-27 15:32:11.188000,-0.0674784837941769
2024-06-27 15:32:11.192000,-0.06491485075993408
2024-06-27 15:32:11.196000,-0.060428492950009155
2024-06-27 15:32:11.200000,-0.05411096868705365
2024-06-27 15:32:11.204000,-0.047244094488188976
2024-06-27 15:32:11.208000,-0.0432155282915217
2024-06-27 15:32:11.212000,-0.04303241164621864
2024-06-27 15:32:11.216000,-0.04486357809924922
2024-06-27 15:32:11.220000,-0.048251236037355795
2024-06-27 15:32:11.224000,-0.054934993590917414
2024-06-27 15:32:11.228000,-0.06518952572788866
2024-06-27 15:32:11.232000,-0.07590184947811757
2024-06-27 15:32:11.236000,-0.08524079838857353
2024-06-27 15:32:11.240000,-0.0949459805896356
2024-06-27 15:32:11.244000,-0.10300311298297016
2024-06-27 15:32:11.248000,-0.10446804614539462
2024-06-27 15:32:11.252000,-0.09824208020509065
2024-06-27 15:32:11.256000,-0.08835378135872551
2024-06-27 15:32:11.260000,-0.07974729902948179
2024-06-27 15:32:11.264000,-0.07407068302508699
2024-06-27 15:32:11.268000,-0.07123237502288958
2024-06-27 15:32:11.272000,-0.0706830250869804
2024-06-27 15:32:11.276000,-0.07086614173228346
2024-06-27 15:32:11.280000,-0.06958432521516206
2024-06-27 15:32:11.284000,-0.06619666727705549
2024-06-27 15:32:11.288000,-0.06253433437099433
2024-06-27 15:32:11.292000,-0.06070316791796374
2024-06-27 15:32:11.296000,-0.06097784288591833
2024-06-27 15:32:11.300000,-0.062351217725691264
2024-06-27 15:32:11.304000,-0.06299212598425197
2024-06-27 15:32:11.308000,-0.05923823475553928
2024-06-27 15:32:11.312000,-0.04788500274674968
2024-06-27 15:32:11.316000,-0.03259476286394433
2024-06-27 15:32:11.320000,-0.02151620582310932
2024-06-27 15:32:11.324000,-0.01785387291704816
2024-06-27 15:32:11.328000,-0.017487639626442043
2024-06-27 15:32:11.332000,-0.016114264786669108
2024-06-27 15:32:11.336000,-0.01309284013916865
2024-06-27 15:32:11.340000,-0.010529207104925838
2024-06-27 15:32:11.344000,-0.009613623878410547
2024-06-27 15:32:11.348000,-0.009705182201062076
2024-06-27 15:32:11.352000,-0.01025453213697125
2024-06-27 15:32:11.356000,-0.011536348654092657
2024-06-27 15:32:11.360000,-0.014557773301593115
2024-06-27 15:32:11.364000,-0.018220106207654276
2024-06-27 15:32:11.368000,-0.020234389305987914
2024-06-27 15:32:11.372000,-0.019959714338033327
2024-06-27 15:32:11.376000,-0.019410364402124153
2024-06-27 15:32:11.380000,-0.019959714338033327
2024-06-27 15:32:11.384000,-0.0205090642739425
2024-06-27 15:32:11.388000,-0.019135689434169566
2024-06-27 15:32:11.392000,-0.01593114814136605
2024-06-27 15:32:11.396000,-0.012909723493865592
2024-06-27 15:32:11.400000,-0.011536348654092657
2024-06-27 15:32:11.404000,-0.011353232008789599
2024-06-27 15:32:11.408000,-0.011078557040835012
2024-06-27 15:32:11.412000,-0.009796740523713605
2024-06-27 15:32:11.416000,-0.007324665812122322
2024-06-27 15:32:11.420000,-0.0031129829701519868
2024-06-27 15:32:11.424000,0.0021973997436366965
2024-06-27 15:32:11.428000,0.006409082585607032
2024-06-27 15:32:11.432000,0.00659219923091009
2024-06-27 15:32:11.436000,0.0021058414209851675
2024-06-27 15:32:11.440000,-0.004394799487273393
2024-06-27 15:32:11.444000,-0.008514924006592199
2024-06-27 15:32:11.448000,-0.006317524262955503
2024-06-27 15:32:11.452000,0.0019227247756821095
2024-06-27 15:32:11.456000,0.011994140267350302
2024-06-27 15:32:11.460000,0.020966855887200146
2024-06-27 15:32:11.464000,0.027375938472807178
2024-06-27 15:32:11.468000,0.025544772019776597
2024-06-27 15:32:11.472000,0.01217725691265336
2024-06-27 15:32:11.476000,-0.008606482329243728
2024-06-27 15:32:11.480000,-0.030580479765610694
2024-06-27 15:32:11.484000,-0.04797656106940121
2024-06-27 15:32:11.488000,-0.056766160043947994
2024-06-27 15:32:11.492000,-0.05832265152902399
2024-06-27 15:32:11.496000,-0.0574070683025087
2024-06-27 15:32:11.500000,-0.05685771836659952
2024-06-27 15:32:11.504000,-0.05594213514008423
2024-06-27 15:32:11.508000,-0.053744735396447536
2024-06-27 15:32:11.512000,-0.05447720197765977
2024-06-27 15:32:11.516000,-0.06363303424281268
2024-06-27 15:32:11.520000,-0.07544405786485991
2024-06-27 15:32:11.524000,-0.07754989928584509
2024-06-27 15:32:11.528000,-0.07214795824940487
2024-06-27 15:32:11.532000,-0.06702069218091924
2024-06-27 15:32:11.536000,-0.05557590184947812
2024-06-27 15:32:11.540000,-0.017579197949093572
2024-06-27 15:32:11.544000,0.05997070133675151
2024-06-27 15:32:11.548000,0.1624244643838125
2024-06-27 15:32:11.552000,0.2559055118110236
2024-06-27 15:32:11.556000,0.3041567478483794
2024-06-27 15:32:11.560000,0.2787950924739059
2024-06-27 15:32:11.564000,0.17844717084783007
2024-06-27 15:32:11.568000,0.033144112799853506
2024-06-27 15:32:11.572000,-0.11518036989562351
2024-06-27 15:32:11.576000,-0.23741073063541476
2024-06-27 15:32:11.580000,-0.31404504669474453
2024-06-27 15:32:11.584000,-0.33318073612891413
2024-06-27 15:32:11.588000,-0.3091924555942135
2024-06-27 15:32:11.592000,-0.2678996520783739
2024-06-27 15:32:11.596000,-0.2245925654642007
2024-06-27 15:32:11.600000,-0.19300494414942318
2024-06-27 15:32:11.604000,-0.17927119575169384
2024-06-27 15:32:11.608000,-0.17515107123237503
2024-06-27 15:32:11.612000,-0.16974913019593482
2024-06-27 15:32:11.616000,-0.15793810657388757
2024-06-27 15:32:11.620000,-0.14118293352865777
2024-06-27 15:32:11.624000,-0.12671671854971617
2024-06-27 15:32:11.628000,-0.12158945248123054
2024-06-27 15:32:11.632000,-0.12488555209668559
2024-06-27 15:32:11.636000,-0.13175242629555026
2024-06-27 15:32:11.640000,-0.13999267533418788
2024-06-27 15:32:11.644000,-0.14649331624244644
2024-06-27 15:32:11.648000,-0.14594396630653728
2024-06-27 15:32:11.652000,-0.13669657571873284
2024-06-27 15:32:11.656000,-0.1233290606116096
2024-06-27 15:32:11.660000,-0.11426478666910822
2024-06-27 15:32:11.664000,-0.11444790331441128
2024-06-27 15:32:11.668000,-0.12213880241713972
2024-06-27 15:32:11.672000,-0.13129463468229263
2024-06-27 15:32:11.676000,-0.1397180003662333
2024-06-27 15:32:11.680000,-0.14841604101812855
2024-06-27 15:32:11.684000,-0.1539095403772203
2024-06-27 15:32:11.688000,-0.14969785753524995
2024-06-27 15:32:11.692000,-0.13550631752426295
2024-06-27 15:32:11.696000,-0.12076542757736679
2024-06-27 15:32:11.700000,-0.11710309467130563
2024-06-27 15:32:11.704000,-0.12433620216077641
2024-06-27 15:32:11.708000,-0.1324848928767625
2024-06-27 15:32:11.712000,-0.13623878410547519
2024-06-27 15:32:11.716000,-0.1375206006225966
2024-06-27 15:32:11.720000,-0.13834462552646035
2024-06-27 15:32:11.724000,-0.13761215894524811
2024-06-27 15:32:11.728000,-0.13468229262039919
2024-06-27 15:32:11.732000,-0.1318439846182018
2024-06-27 15:32:11.736000,-0.13101995971433802
2024-06-27 15:32:11.740000,-0.13193554294085333
2024-06-27 15:32:11.744000,-0.13294268449002014
2024-06-27 15:32:11.748000,-0.1302874931331258
2024-06-27 15:32:11.752000,-0.12076542757736679
2024-06-27 15:32:11.756000,-0.10529207104925838
2024-06-27 15:32:11.760000,-0.08872001464933163
2024-06-27 15:32:11.764000,-0.07480314960629922
2024-06-27 15:32:11.768000,-0.0652810840505402
2024-06-27 15:32:11.772000,-0.058414209851675516
2024-06-27 15:32:11.776000,-0.050173960813037904
2024-06-27 15:32:11.780000,-0.03918696209485442
2024-06-27 15:32:11.784000,-0.023805163889397546
2024-06-27 15:32:11.788000,-0.0026551913568943417
2024-06-27 15:32:11.792000,0.019410364402124153
2024-06-27 15:32:11.796000,0.03570774583409632
2024-06-27 15:32:11.800000,0.04486357809924922
2024-06-27 15:32:11.804000,0.05081486907159861
2024-06-27 15:32:11.808000,0.05813953488372093
2024-06-27 15:32:11.812000,0.06784471708478301
2024-06-27 15:32:11.816000,0.0772752243178905
2024-06-27 15:32:11.820000,0.08441677348470976
2024-06-27 15:32:11.824000,0.09045962277971067
2024-06-27 15:32:11.828000,0.09641091375206007
2024-06-27 15:32:11.832000,0.10098882988463652
2024-06-27 15:32:11.836000,0.10327778795092474
2024-06-27 15:32:11.840000,0.10263687969236404
2024-06-27 15:32:11.844000,0.09888298846365134
2024-06-27 15:32:11.848000,0.09238234755539279
2024-06-27 15:32:11.852000,0.08340963193554295
2024-06-27 15:32:11.856000,0.07297198315326864
2024-06-27 15:32:11.860000,0.06555575901849478
2024-06-27 15:32:11.864000,0.06930965024720748
2024-06-27 15:32:11.868000,0.08762131477751328
2024-06-27 15:32:11.872000,0.11279985350668376
2024-06-27 15:32:11.876000,0.13202710126350486
2024-06-27 15:32:11.880000,0.140358908624794
2024-06-27 15:32:11.884000,0.1425563083684307
2024-06-27 15:32:11.888000,0.14502838308002197
2024-06-27 15:32:11.892000,0.14933162424464383
2024-06-27 15:32:11.896000,0.15372642373191722
2024-06-27 15:32:11.900000,0.157663431605933
2024-06-27 15:32:11.904000,0.16123420618934262
2024-06-27 15:32:11.908000,0.16416407251419154
2024-06-27 15:32:11.912000,0.16636147225782824
2024-06-27 15:32:11.916000,0.16810108038820729
2024-06-27 15:32:11.920000,0.17020692180919245
2024-06-27 15:32:11.924000,0.17359457974729903
2024-06-27 15:32:11.928000,0.17927119575169384
2024-06-27 15:32:11.932000,0.18687053653177074
2024-06-27 15:32:11.936000,0.19419520234389306
2024-06-27 15:32:11.940000,0.19886467679912104
2024-06-27 15:32:11.944000,0.20042116828419704
2024-06-27 15:32:11.948000,0.19978026002563634
2024-06-27 15:32:11.952000,0.1987731184764695
2024-06-27 15:32:11.956000,0.20078740157480315
2024-06-27 15:32:11.960000,0.2079289507416224
2024-06-27 15:32:11.964000,0.21681010803882073
2024-06-27 15:32:11.968000,0.22056399926753342
2024-06-27 15:32:11.972000,0.21818348287859365
2024-06-27 15:32:11.976000,0.21442959164988099
2024-06-27 15:32:11.980000,0.21250686687419887
2024-06-27 15:32:11.984000,0.21113349203442594
2024-06-27 15:32:11.988000,0.20875297564548617
2024-06-27 15:32:11.992000,0.20554843435268266
2024-06-27 15:32:11.996000,0.20115363486540927
2024-06-27 15:32:12.000000,0.19511078557040834
2024-06-27 15:32:12.004000,0.18970884453396814
2024-06-27 15:32:12.008000,0.1873283281450284
2024-06-27 15:32:12.012000,0.1864127449185131
2024-06-27 15:32:12.016000,0.1857718366599524
2024-06-27 15:32:12.020000,0.1867789782091192
2024-06-27 15:32:12.024000,0.19044131111518037
2024-06-27 15:32:12.028000,0.19456143563449918
2024-06-27 15:32:12.032000,0.195568577183666
2024-06-27 15:32:12.036000,0.19254715253616553
2024-06-27 15:32:12.040000,0.18787767808093755
2024-06-27 15:32:12.044000,0.18439846182017947
2024-06-27 15:32:12.048000,0.1839406702069218
2024-06-27 15:32:12.052000,0.18531404504669474
2024-06-27 15:32:12.056000,0.18650430324116463
2024-06-27 15:32:12.060000,0.18714521149972532
2024-06-27 15:32:12.064000,0.18778611975828602
2024-06-27 15:32:12.068000,0.18842702801684674
2024-06-27 15:32:12.072000,0.18659586156381616
2024-06-27 15:32:12.076000,0.1791796374290423
2024-06-27 15:32:12.080000,0.16810108038820729
2024-06-27 15:32:12.084000,0.16068485625343343
2024-06-27 15:32:12.088000,0.1608679728987365
2024-06-27 15:32:12.092000,0.16388939754623696
2024-06-27 15:32:12.096000,0.16050173960813038
2024-06-27 15:32:12.100000,0.14438747482146128
2024-06-27 15:32:12.104000,0.11975828602819996
2024-06-27 15:32:12.108000,0.09833363852774217
2024-06-27 15:32:12.112000,0.08688884819630105
2024-06-27 15:32:12.116000,0.08432521516205824
2024-06-27 15:32:12.120000,0.08597326496978576
2024-06-27 15:32:12.124000,0.08698040651895257
2024-06-27 15:32:12.128000,0.0829518403222853
2024-06-27 15:32:12.132000,0.07114081670023806
2024-06-27 15:32:12.136000,0.05466031862296283
2024-06-27 15:32:12.140000,0.041567478483794176
2024-06-27 15:32:12.144000,0.036073979124702435
2024-06-27 15:32:12.148000,0.035158395898187145
2024-06-27 15:32:12.152000,0.03305255447720198
2024-06-27 15:32:12.156000,0.02710126350485259
2024-06-27 15:32:12.160000,0.019318806079472624
2024-06-27 15:32:12.164000,0.012909723493865592
2024-06-27 15:32:12.168000,0.007049990844167735
2024-06-27 15:32:12.172000,-0.0009155832265152902
2024-06-27 15:32:12.176000,-0.010071415491668192
2024-06-27 15:32:12.180000,-0.01693828969053287
2024-06-27 15:32:12.184000,-0.020051272660684856
2024-06-27 15:32:12.188000,-0.02069218091924556
2024-06-27 15:32:12.192000,-0.020142830983336385
2024-06-27 15:32:12.196000,-0.01959348104742721
2024-06-27 15:32:12.200000,-0.02060062259659403
2024-06-27 15:32:12.204000,-0.025086980406518952
2024-06-27 15:32:12.208000,-0.03360190441311115
2024-06-27 15:32:12.212000,-0.04248306171030947
2024-06-27 15:32:12.216000,-0.045412928035158395
2024-06-27 15:32:12.220000,-0.04110968687053653
2024-06-27 15:32:12.224000,-0.03460904596227797
2024-06-27 15:32:12.228000,-0.030580479765610694
2024-06-27 15:32:12.232000,-0.029207104925837758
2024-06-27 15:32:12.236000,-0.028291521699322468
2024-06-27 15:32:12.240000,-0.02728438015015565
2024-06-27 15:32:12.244000,-0.026002563633034242
2024-06-27 15:32:12.248000,-0.024812305438564365
2024-06-27 15:32:12.252000,-0.024537630470609778
2024-06-27 15:32:12.256000,-0.02627723860098883
2024-06-27 15:32:12.260000,-0.03076359641091375
2024-06-27 15:32:12.264000,-0.03863761215894525
2024-06-27 15:32:12.268000,-0.04806811939205274
2024-06-27 15:32:12.272000,-0.055667460172129646
2024-06-27 15:32:12.276000,-0.060428492950009155
2024-06-27 15:32:12.280000,-0.06290056766160045
2024-06-27 15:32:12.284000,-0.06271745101629739
2024-06-27 15:32:12.288000,-0.0602453763047061
2024-06-27 15:32:12.292000,-0.056583043398644936
2024-06-27 15:32:12.296000,-0.05218824391137154
2024-06-27 15:32:12.300000,-0.048159677714704266
2024-06-27 15:32:12.304000,-0.049258377586522614
2024-06-27 15:32:12.308000,-0.06207654275773668
2024-06-27 15:32:12.312000,-0.08405054019410364
2024-06-27 15:32:12.316000,-0.09549533052554478
2024-06-27 15:32:12.320000,-0.07297198315326864
2024-06-27 15:32:12.324000,-0.009705182201062076
2024-06-27 15:32:12.328000,0.08185314045046695
2024-06-27 15:32:12.332000,0.1776231459439663
2024-06-27 15:32:12.336000,0.24839772935359825
2024-06-27 15:32:12.340000,0.27394250137337484
2024-06-27 15:32:12.344000,0.24958798754806813
2024-06-27 15:32:12.348000,0.17405237136055668
2024-06-27 15:32:12.352000,0.05337850210584142
2024-06-27 15:32:12.356000,-0.08084599890130013
2024-06-27 15:32:12.360000,-0.19236403589086248
2024-06-27 15:32:12.364000,-0.2635964109137521
2024-06-27 15:32:12.368000,-0.28593664164072513
2024-06-27 15:32:12.372000,-0.2645119941402673
2024-06-27 15:32:12.376000,-0.2271561984984435
2024-06-27 15:32:12.380000,-0.19886467679912104
2024-06-27 15:32:12.384000,-0.18183482878593665
2024-06-27 15:32:12.388000,-0.16169199780260027
2024-06-27 15:32:12.392000,-0.1279985350668376
2024-06-27 15:32:12.396000,-0.08853689800402857
2024-06-27 15:32:12.400000,-0.06079472624061527
2024-06-27 15:32:12.404000,-0.04980772752243179
2024-06-27 15:32:12.408000,-0.04779344442409815
2024-06-27 15:32:12.412000,-0.048159677714704266
2024-06-27 15:32:12.416000,-0.04934993590917414
2024-06-27 15:32:12.420000,-0.05127266068485625
2024-06-27 15:32:12.424000,-0.05227980223402307
2024-06-27 15:32:12.428000,-0.05081486907159861
2024-06-27 15:32:12.432000,-0.04706097784288592
2024-06-27 15:32:12.436000,-0.04239150338765794
2024-06-27 15:32:12.440000,-0.03836293719099066
2024-06-27 15:32:12.444000,-0.03625709577000549
2024-06-27 15:32:12.448000,-0.03589086247939938
2024-06-27 15:32:12.452000,-0.03570774583409632
2024-06-27 15:32:12.456000,-0.0347006042849295
2024-06-27 15:32:12.460000,-0.03286943783189892
2024-06-27 15:32:12.464000,-0.029573338216443874
2024-06-27 15:32:12.468000,-0.024995422083867423
2024-06-27 15:32:12.472000,-0.02169932246841238
2024-06-27 15:32:12.476000,-0.02261490569492767
2024-06-27 15:32:12.480000,-0.027375938472807178
2024-06-27 15:32:12.484000,-0.033235671122505035
2024-06-27 15:32:12.488000,-0.03717267899652078
2024-06-27 15:32:12.492000,-0.037905145577733015
2024-06-27 15:32:12.496000,-0.035158395898187145
2024-06-27 15:32:12.500000,-0.028383080021973997
2024-06-27 15:32:12.504000,-0.019135689434169566
2024-06-27 15:32:12.508000,-0.011627906976744186
2024-06-27 15:32:12.512000,-0.008331807361289141
2024-06-27 15:32:12.516000,-0.007599340780076909
2024-06-27 15:32:12.520000,-0.006866874198864677
2024-06-27 15:32:12.524000,-0.005218824391137154
2024-06-27 15:32:12.528000,-0.0023805163889397546
2024-06-27 15:32:12.532000,0.003296099615455045
2024-06-27 15:32:12.536000,0.012909723493865592
2024-06-27 15:32:12.540000,0.024537630470609778
2024-06-27 15:32:12.544000,0.03680644570591467
2024-06-27 15:32:12.548000,0.050082402490386375
2024-06-27 15:32:12.552000,0.06418238417872185
2024-06-27 15:32:12.556000,0.0785570408350119
2024-06-27 15:32:12.560000,0.09256546420069585
2024-06-27 15:32:12.564000,0.10382713788683391
2024-06-27 15:32:12.568000,0.11005310382713789
2024-06-27 15:32:12.572000,0.11115180369895623
2024-06-27 15:32:12.576000,0.10904596227797107
2024-06-27 15:32:12.580000,0.1062992125984252
2024-06-27 15:32:12.584000,0.10455960446804614
2024-06-27 15:32:12.588000,0.10574986266251603
2024-06-27 15:32:12.592000,0.11106024537630471
2024-06-27 15:32:12.596000,0.11966672770554844
2024-06-27 15:32:12.600000,0.12772386009888298
2024-06-27 15:32:12.604000,0.12973814319721663
2024-06-27 15:32:12.608000,0.1233290606116096
2024-06-27 15:32:12.612000,0.10712323750228896
2024-06-27 15:32:12.616000,0.0779161325764512
2024-06-27 15:32:12.620000,0.04138436183849112
2024-06-27 15:32:12.624000,0.012085698590001831
2024-06-27 15:32:12.628000,-0.004577916132576451
2024-06-27 15:32:12.632000,-0.014832448269547702
2024-06-27 15:32:12.636000,-0.023805163889397546
2024-06-27 15:32:12.640000,-0.03268632118659586
2024-06-27 15:32:12.644000,-0.041659036806445705
2024-06-27 15:32:12.648000,-0.05081486907159861
2024-06-27 15:32:12.652000,-0.060428492950009155
2024-06-27 15:32:12.656000,-0.069401208569859
2024-06-27 15:32:12.660000,-0.07526094121955686
2024-06-27 15:32:12.664000,-0.07754989928584509
2024-06-27 15:32:12.668000,-0.07874015748031496
2024-06-27 15:32:12.672000,-0.08148690715986083
2024-06-27 15:32:12.676000,-0.08560703167917964
2024-06-27 15:32:12.680000,-0.08817066471342246
2024-06-27 15:32:12.684000,-0.08688884819630105
2024-06-27 15:32:12.688000,-0.08267716535433071
2024-06-27 15:32:12.692000,-0.07974729902948179
2024-06-27 15:32:12.696000,-0.08130379051455777
2024-06-27 15:32:12.700000,-0.0857901483244827
2024-06-27 15:32:12.704000,-0.09009338948910456
2024-06-27 15:32:12.708000,-0.09183299761948362
2024-06-27 15:32:12.712000,-0.09027650613440762
2024-06-27 15:32:12.716000,-0.08679728987364951
2024-06-27 15:32:12.720000,-0.08304339864493683
2024-06-27 15:32:12.724000,-0.07938106573887567
2024-06-27 15:32:12.728000,-0.07654275773667826
2024-06-27 15:32:12.732000,-0.07516938289690533
2024-06-27 15:32:12.736000,-0.07471159128364768
2024-06-27 15:32:12.740000,-0.07489470792895074
2024-06-27 15:32:12.744000,-0.07645119941402674
2024-06-27 15:32:12.748000,-0.07983885735213331
2024-06-27 15:32:12.752000,-0.0829518403222853
2024-06-27 15:32:12.756000,-0.08249404870902766
2024-06-27 15:32:12.760000,-0.07864859915766344
2024-06-27 15:32:12.764000,-0.07489470792895074
2024-06-27 15:32:12.768000,-0.07352133308917781
2024-06-27 15:32:12.772000,-0.07379600805713239
2024-06-27 15:32:12.776000,-0.07452847463834462
2024-06-27 15:32:12.780000,-0.07480314960629922
2024-06-27 15:32:12.784000,-0.07370444973448087
2024-06-27 15:32:12.788000,-0.07114081670023806
2024-06-27 15:32:12.792000,-0.06839406702069219
2024-06-27 15:32:12.796000,-0.06601355063175243
2024-06-27 15:32:12.800000,-0.06299212598425197
2024-06-27 15:32:12.804000,-0.058688884819630104
2024-06-27 15:32:12.808000,-0.053927852041750594
2024-06-27 15:32:12.812000,-0.04989928584508332
2024-06-27 15:32:12.816000,-0.046420069584325215
2024-06-27 15:32:12.820000,-0.042574620032960996
2024-06-27 15:32:12.824000,-0.038912287126899835
2024-06-27 15:32:12.828000,-0.03717267899652078
2024-06-27 15:32:12.832000,-0.03717267899652078
2024-06-27 15:32:12.836000,-0.03772202893242996
2024-06-27 15:32:12.840000,-0.037905145577733015
2024-06-27 15:32:12.844000,-0.03662332906061161
2024-06-27 15:32:12.848000,-0.033235671122505035
2024-06-27 15:32:12.852000,-0.02893242995788317
2024-06-27 15:32:12.856000,-0.02545321369712507
2024-06-27 15:32:12.860000,-0.024079838857352133
2024-06-27 15:32:12.864000,-0.024995422083867423
2024-06-27 15:32:12.868000,-0.027559055118110236
2024-06-27 15:32:12.872000,-0.03012268815235305
2024-06-27 15:32:12.876000,-0.031129829701519868
2024-06-27 15:32:12.880000,-0.03085515473356528
2024-06-27 15:32:12.884000,-0.030488921442959165
2024-06-27 15:32:12.888000,-0.0325032045412928
2024-06-27 15:32:12.892000,-0.038820728804248306
2024-06-27 15:32:12.896000,-0.047427211133492034
2024-06-27 15:32:12.900000,-0.05365317707379601
2024-06-27 15:32:12.904000,-0.054843435268265885
2024-06-27 15:32:12.908000,-0.05264603552462919
2024-06-27 15:32:12.912000,-0.04989928584508332
2024-06-27 15:32:12.916000,-0.04770188610144662
2024-06-27 15:32:12.920000,-0.04559604468046145
2024-06-27 15:32:12.924000,-0.04403955319538546
2024-06-27 15:32:12.928000,-0.04339864493682476
2024-06-27 15:32:12.932000,-0.04248306171030947
2024-06-27 15:32:12.936000,-0.039919428676066654
2024-06-27 15:32:12.940000,-0.03570774583409632
2024-06-27 15:32:12.944000,-0.03103827137886834
2024-06-27 15:32:12.948000,-0.026460355246291888
2024-06-27 15:32:12.952000,-0.02252334737227614
2024-06-27 15:32:12.956000,-0.018952572788866508
2024-06-27 15:32:12.960000,-0.014557773301593115
2024-06-27 15:32:12.964000,-0.010712323750228896
2024-06-27 15:32:12.968000,-0.010803882072880425
2024-06-27 15:32:12.972000,-0.01583958981871452
2024-06-27 15:32:12.976000,-0.0233473722761399
2024-06-27 15:32:12.980000,-0.029207104925837758
2024-06-27 15:32:12.984000,-0.03195385460538363
2024-06-27 15:32:12.988000,-0.032228529573338216
2024-06-27 15:32:12.992000,-0.028291521699322468
2024-06-27 15:32:12.996000,-0.017487639626442043
2024-06-27 15:32:13.000000,-0.0025636330342428126
2024-06-27 15:32:13.004000,0.009979857169016663
2024-06-27 15:32:13.008000,0.01776231459439663
2024-06-27 15:32:13.012000,0.022157114081670023
2024-06-27 15:32:13.016000,0.02527009705182201
2024-06-27 15:32:13.020000,0.028749313312580113
2024-06-27 15:32:13.024000,0.03213697125068669
2024-06-27 15:32:13.028000,0.034151254349020325
2024-06-27 15:32:13.032000,0.035249954220838674
2024-06-27 15:32:13.036000,0.03662332906061161
2024-06-27 15:32:13.040000,0.0381798205456876
2024-06-27 15:32:13.044000,0.03872917048159678
2024-06-27 15:32:13.048000,0.03579930415674785
2024-06-27 15:32:13.052000,0.02728438015015565
2024-06-27 15:32:13.056000,0.014649331624244644
2024-06-27 15:32:13.060000,0.0026551913568943417
2024-06-27 15:32:13.064000,-0.004761032777879509
2024-06-27 15:32:13.068000,-0.007599340780076909
2024-06-27 15:32:13.072000,-0.009155832265152902
2024-06-27 15:32:13.076000,-0.013275956784471708
2024-06-27 15:32:13.080000,-0.019959714338033327
2024-06-27 15:32:13.084000,-0.023164255630836843
2024-06-27 15:32:13.088000,-0.022157114081670023
2024-06-27 15:32:13.092000,-0.020875297564548617
2024-06-27 15:32:13.096000,-0.010437648782274309
2024-06-27 15:32:13.100000,0.02160776414576085
2024-06-27 15:32:13.104000,0.07754989928584509
2024-06-27 15:32:13.108000,0.15885368980040285
2024-06-27 15:32:13.112000,0.2548983702618568
2024-06-27 15:32:13.116000,0.334370994323384
2024-06-27 15:32:13.120000,0.36898004028566195
2024-06-27 15:32:13.124000,0.348745650979674
2024-06-27 15:32:13.128000,0.27998535066837577
2024-06-27 15:32:13.132000,0.17432704632851126
2024-06-27 15:32:13.136000,0.0523713605566746
2024-06-27 15:32:13.140000,-0.06409082585607032
2024-06-27 15:32:13.144000,-0.16517121406335836
2024-06-27 15:32:13.148000,-0.2337483977293536
2024-06-27 15:32:13.152000,-0.24995422083867425
2024-06-27 15:32:13.156000,-0.2158029664896539
2024-06-27 15:32:13.160000,-0.15180369895623513
2024-06-27 15:32:13.164000,-0.09110053103827138
2024-06-27 15:32:13.168000,-0.0580479765610694
2024-06-27 15:32:13.172000,-0.04577916132576451
2024-06-27 15:32:13.176000,-0.03570774583409632
2024-06-27 15:32:13.180000,-0.022065555759018494
2024-06-27 15:32:13.184000,-0.008331807361289141
2024-06-27 15:32:13.188000,0.003570774583409632
2024-06-27 15:32:13.192000,0.014191540010986999
2024-06-27 15:32:13.196000,0.02527009705182201
2024-06-27 15:32:13.200000,0.035158395898187145
2024-06-27 15:32:13.204000,0.03570774583409632
2024-06-27 15:32:13.208000,0.023164255630836843
2024-06-27 15:32:13.212000,0.004211682841970335
2024-06-27 15:32:13.216000,-0.013001281816517121
2024-06-27 15:32:13.220000,-0.025086980406518952
2024-06-27 15:32:13.224000,-0.029664896539095403
2024-06-27 15:32:13.228000,-0.026735030214246475
2024-06-27 15:32:13.232000,-0.0205090642739425
2024-06-27 15:32:13.236000,-0.01409998168833547
2024-06-27 15:32:13.240000,-0.006409082585607032
2024-06-27 15:32:13.244000,0.0031129829701519868
2024-06-27 15:32:13.248000,0.01309284013916865
2024-06-27 15:32:13.252000,0.02160776414576085
2024-06-27 15:32:13.256000,0.02810840505401941
2024-06-27 15:32:13.260000,0.0318622962827321
2024-06-27 15:32:13.264000,0.02893242995788317
2024-06-27 15:32:13.268000,0.01977659769273027
2024-06-27 15:32:13.272000,0.011902581944698773
2024-06-27 15:32:13.276000,0.009064273942501373
2024-06-27 15:32:13.280000,0.009522065555759018
2024-06-27 15:32:13.284000,0.012268815235304889
2024-06-27 15:32:13.288000,0.018311664530305805
2024-06-27 15:32:13.292000,0.0261856802783373
2024-06-27 15:32:13.296000,0.03204541292803516
2024-06-27 15:32:13.300000,0.03497527925288409
2024-06-27 15:32:13.304000,0.037996703900384544
2024-06-27 15:32:13.308000,0.0432155282915217
2024-06-27 15:32:13.312000,0.04880058597326497
2024-06-27 15:32:13.316000,0.05319538546053836
2024-06-27 15:32:13.320000,0.058597326496978575
2024-06-27 15:32:13.324000,0.06738692547152536
2024-06-27 15:32:13.328000,0.08157846548251237
2024-06-27 15:32:13.332000,0.10053103827137887
2024-06-27 15:32:13.336000,0.11966672770554844
2024-06-27 15:32:13.340000,0.13385826771653545
2024-06-27 15:32:13.344000,0.1409998168833547
2024-06-27 15:32:13.348000,0.14237319172312762
2024-06-27 15:32:13.352000,0.1409998168833547
2024-06-27 15:32:13.356000,0.1393517670756272
2024-06-27 15:32:13.360000,0.1394433253982787
2024-06-27 15:32:13.364000,0.14457059146676432
2024-06-27 15:32:13.368000,0.1549166819263871
2024-06-27 15:32:13.372000,0.16398095586888847
2024-06-27 15:32:13.376000,0.1652627723860099
2024-06-27 15:32:13.380000,0.15784654825123604
2024-06-27 15:32:13.384000,0.14154916681926388
2024-06-27 15:32:13.388000,0.12012451931880608
2024-06-27 15:32:13.392000,0.10327778795092474
2024-06-27 15:32:13.396000,0.09265702252334737
2024-06-27 15:32:13.400000,0.07846548251236038
2024-06-27 15:32:13.404000,0.055209668558872
2024-06-27 15:32:13.408000,0.028383080021973997
2024-06-27 15:32:13.412000,0.006958432521516206
2024-06-27 15:32:13.416000,-0.005218824391137154
2024-06-27 15:32:13.420000,-0.009522065555759018
2024-06-27 15:32:13.424000,-0.008514924006592199
2024-06-27 15:32:13.428000,-0.004944149423182567
2024-06-27 15:32:13.432000,-0.0006409082585607032
2024-06-27 15:32:13.436000,0.0022889580662882256
2024-06-27 15:32:13.440000,0.00018311664530305805
2024-06-27 15:32:13.444000,-0.011902581944698773
2024-06-27 15:32:13.448000,-0.03213697125068669
2024-06-27 15:32:13.452000,-0.050997985716901666
2024-06-27 15:32:13.456000,-0.062259659403039735
2024-06-27 15:32:13.460000,-0.06610510895440395
2024-06-27 15:32:13.464000,-0.0650064090825856
2024-06-27 15:32:13.468000,-0.061252517853872916
2024-06-27 15:32:13.472000,-0.05649148507599341
2024-06-27 15:32:13.476000,-0.052096685588720014
2024-06-27 15:32:13.480000,-0.050265519135689433
2024-06-27 15:32:13.484000,-0.05337850210584142
2024-06-27 15:32:13.488000,-0.06015381798205457
2024-06-27 15:32:13.492000,-0.06848562534334371
2024-06-27 15:32:13.496000,-0.0785570408350119
2024-06-27 15:32:13.500000,-0.08679728987364951
2024-06-27 15:32:13.504000,-0.08633949826039188
2024-06-27 15:32:13.508000,-0.07489470792895074
2024-06-27 15:32:13.512000,-0.059421351400842336
2024-06-27 15:32:13.516000,-0.04989928584508332
2024-06-27 15:32:13.520000,-0.0488921442959165
2024-06-27 15:32:13.524000,-0.05081486907159861
2024-06-27 15:32:13.528000,-0.050997985716901666
2024-06-27 15:32:13.532000,-0.050082402490386375
2024-06-27 15:32:13.536000,-0.05090642739425014
2024-06-27 15:32:13.540000,-0.05612525178538729
2024-06-27 15:32:13.544000,-0.06445705914667643
2024-06-27 15:32:13.548000,-0.07004211682841971
2024-06-27 15:32:13.552000,-0.06912653360190442
2024-06-27 15:32:13.556000,-0.06619666727705549
2024-06-27 15:32:13.560000,-0.06546420069584326
2024-06-27 15:32:13.564000,-0.06537264237319172
2024-06-27 15:32:13.568000,-0.06262589269364585
2024-06-27 15:32:13.572000,-0.05639992675334188
2024-06-27 15:32:13.576000,-0.048159677714704266
2024-06-27 15:32:13.580000,-0.040651895257278886
2024-06-27 15:32:13.584000,-0.03653177073796008
2024-06-27 15:32:13.588000,-0.03570774583409632
2024-06-27 15:32:13.592000,-0.03644021241530855
2024-06-27 15:32:13.596000,-0.0375389122871269
2024-06-27 15:32:13.600000,-0.03918696209485442
2024-06-27 15:32:13.604000,-0.041567478483794176
2024-06-27 15:32:13.608000,-0.0438564365500824
2024-06-27 15:32:13.612000,-0.04577916132576451
2024-06-27 15:32:13.616000,-0.048251236037355795
2024-06-27 15:32:13.620000,-0.050997985716901666
2024-06-27 15:32:13.624000,-0.05347006042849295
2024-06-27 15:32:13.628000,-0.05502655191356894
2024-06-27 15:32:13.632000,-0.05603369346273576
2024-06-27 15:32:13.636000,-0.057590184947811755
2024-06-27 15:32:13.640000,-0.0602453763047061
2024-06-27 15:32:13.644000,-0.06335835927485808
2024-06-27 15:32:13.648000,-0.06628822559970701
2024-06-27 15:32:13.652000,-0.06903497527925288
2024-06-27 15:32:13.656000,-0.07260574986266252
2024-06-27 15:32:13.660000,-0.07608496612342062
2024-06-27 15:32:13.664000,-0.07562717451016297
2024-06-27 15:32:13.668000,-0.06802783373008607
2024-06-27 15:32:13.672000,-0.05319538546053836
2024-06-27 15:32:13.676000,-0.03653177073796008
2024-06-27 15:32:13.680000,-0.029390221571140816
2024-06-27 15:32:13.684000,-0.04028566196667277
2024-06-27 15:32:13.688000,-0.06253433437099433
2024-06-27 15:32:13.692000,-0.0823109320637246
2024-06-27 15:32:13.696000,-0.09512909723493866
2024-06-27 15:32:13.700000,-0.10199597143380333
2024-06-27 15:32:13.704000,-0.10080571323933346
2024-06-27 15:32:13.708000,-0.08963559787584692
2024-06-27 15:32:13.712000,-0.07141549166819264
2024-06-27 15:32:13.716000,-0.05347006042849295
2024-06-27 15:32:13.720000,-0.04312396996887017
2024-06-27 15:32:13.724000,-0.04330708661417323
2024-06-27 15:32:13.728000,-0.050082402490386375
2024-06-27 15:32:13.732000,-0.05731550997985717
2024-06-27 15:32:13.736000,-0.062351217725691264
2024-06-27 15:32:13.740000,-0.06418238417872185
2024-06-27 15:32:13.744000,-0.06280900933894891
2024-06-27 15:32:13.748000,-0.06070316791796374
2024-06-27 15:32:13.752000,-0.059604468046145394
2024-06-27 15:32:13.756000,-0.05932979307819081
2024-06-27 15:32:13.760000,-0.05923823475553928
2024-06-27 15:32:13.764000,-0.05932979307819081
2024-06-27 15:32:13.768000,-0.06070316791796374
2024-06-27 15:32:13.772000,-0.06409082585607032
2024-06-27 15:32:13.776000,-0.06894341695660136
2024-06-27 15:32:13.780000,-0.07306354147592016
2024-06-27 15:32:13.784000,-0.07370444973448087
2024-06-27 15:32:13.788000,-0.0672038088262223
2024-06-27 15:32:13.792000,-0.0517304522981139
2024-06-27 15:32:13.796000,-0.032411646218641274
2024-06-27 15:32:13.800000,-0.01858633949826039
2024-06-27 15:32:13.804000,-0.013916865043032411
2024-06-27 15:32:13.808000,-0.014557773301593115
2024-06-27 15:32:13.812000,-0.016572056399926753
2024-06-27 15:32:13.816000,-0.018311664530305805
2024-06-27 15:32:13.820000,-0.018952572788866508
2024-06-27 15:32:13.824000,-0.016388939754623695
2024-06-27 15:32:13.828000,-0.00842336568394067
2024-06-27 15:32:13.832000,0.0022889580662882256
2024-06-27 15:32:13.836000,0.009888298846365134
2024-06-27 15:32:13.840000,0.010895440395531954
2024-06-27 15:32:13.844000,0.007324665812122322
2024-06-27 15:32:13.848000,0.003479216260758103
2024-06-27 15:32:13.852000,0.0008240249038637612
2024-06-27 15:32:13.856000,-0.0028383080021973997
2024-06-27 15:32:13.860000,-0.010803882072880425
2024-06-27 15:32:13.864000,-0.022798022340230727
2024-06-27 15:32:13.868000,-0.0347006042849295
2024-06-27 15:32:13.872000,-0.045321369712506866
2024-06-27 15:32:13.876000,-0.057498626625160226
2024-06-27 15:32:13.880000,-0.06848562534334371
2024-06-27 15:32:13.884000,-0.07260574986266252
2024-06-27 15:32:13.888000,-0.07196484160410181
2024-06-27 15:32:13.892000,-0.07819080754440579
2024-06-27 15:32:13.896000,-0.09815052188243911
2024-06-27 15:32:13.900000,-0.11691997802600257
2024-06-27 15:32:13.904000,-0.10803882072880425
2024-06-27 15:32:13.908000,-0.06171030946713056
2024-06-27 15:32:13.912000,0.009888298846365134
2024-06-27 15:32:13.916000,0.09595312213880242
2024-06-27 15:32:13.920000,0.1896172862113166
2024-06-27 15:32:13.924000,0.27082951840322284
2024-06-27 15:32:13.928000,0.3163340047610328
2024-06-27 15:32:13.932000,0.30617103094671305
2024-06-27 15:32:13.936000,0.22413477385094305
2024-06-27 15:32:13.940000,0.08560703167917964
2024-06-27 15:32:13.944000,-0.0650064090825856
2024-06-27 15:32:13.948000,-0.19025819446987732
2024-06-27 15:32:13.952000,-0.2678996520783739
2024-06-27 15:32:13.956000,-0.2889580662882256
2024-06-27 15:32:13.960000,-0.26295550265519135
2024-06-27 15:32:13.964000,-0.2164438747482146
2024-06-27 15:32:13.968000,-0.17139718000366233
2024-06-27 15:32:13.972000,-0.13697125068668742
2024-06-27 15:32:13.976000,-0.11646218641274492
2024-06-27 15:32:13.980000,-0.1050173960813038
2024-06-27 15:32:13.984000,-0.09284013916865043
2024-06-27 15:32:13.988000,-0.07690899102728438
2024-06-27 15:32:13.992000,-0.062259659403039735
2024-06-27 15:32:13.996000,-0.05420252700970518
2024-06-27 15:32:14.000000,-0.05264603552462919
2024-06-27 15:32:14.004000,-0.05319538546053836
2024-06-27 15:32:14.008000,-0.05319538546053836
2024-06-27 15:32:14.012000,-0.05218824391137154
2024-06-27 15:32:14.016000,-0.05063175242629555
2024-06-27 15:32:14.020000,-0.04806811939205274
2024-06-27 15:32:14.024000,-0.043581761582127815
2024-06-27 15:32:14.028000,-0.036898004028566196
2024-06-27 15:32:14.032000,-0.028657754989928584
2024-06-27 15:32:14.036000,-0.0205090642739425
2024-06-27 15:32:14.040000,-0.013916865043032411
2024-06-27 15:32:14.044000,-0.009522065555759018
2024-06-27 15:32:14.048000,-0.006500640908258561
2024-06-27 15:32:14.052000,-0.004028566196667277
2024-06-27 15:32:14.056000,-0.0025636330342428126
2024-06-27 15:32:14.060000,-0.0021058414209851675
2024-06-27 15:32:14.064000,-0.0010986998718183483
2024-06-27 15:32:14.068000,0.0020142830983336385
2024-06-27 15:32:14.072000,0.00659219923091009
2024-06-27 15:32:14.076000,0.009613623878410547
2024-06-27 15:32:14.080000,0.009979857169016663
2024-06-27 15:32:14.084000,0.009064273942501373
2024-06-27 15:32:14.088000,0.01025453213697125
2024-06-27 15:32:14.092000,0.015564914850759934
2024-06-27 15:32:14.096000,0.022798022340230727
2024-06-27 15:32:14.100000,0.026826588536898004
2024-06-27 15:32:14.104000,0.02609412195568577
2024-06-27 15:32:14.108000,0.023713605566746017
2024-06-27 15:32:14.112000,0.023805163889397546
2024-06-27 15:32:14.116000,0.028383080021973997
2024-06-27 15:32:14.120000,0.03854605383629372
2024-06-27 15:32:14.124000,0.05255447720197766
2024-06-27 15:32:14.128000,0.06665445889031313
2024-06-27 15:32:14.132000,0.08029664896539096
2024-06-27 15:32:14.136000,0.09467130562168101
2024-06-27 15:32:14.140000,0.10813037905145578
2024-06-27 15:32:14.144000,0.1182933528657755
2024-06-27 15:32:14.148000,0.1264420435817616
2024-06-27 15:32:14.152000,0.13431605932979307
2024-06-27 15:32:14.156000,0.14090825856070316
2024-06-27 15:32:14.160000,0.14759201611426478
2024-06-27 15:32:14.164000,0.15912836476835746
2024-06-27 15:32:14.168000,0.17423548800585972
2024-06-27 15:32:14.172000,0.18558872001464932
2024-06-27 15:32:14.176000,0.18915949459805897
2024-06-27 15:32:14.180000,0.1864127449185131
2024-06-27 15:32:14.184000,0.17835561252517854
2024-06-27 15:32:14.188000,0.1646218641274492
2024-06-27 15:32:14.192000,0.1457608496612342
2024-06-27 15:32:14.196000,0.126167368613807
2024-06-27 15:32:14.200000,0.11087712873100165
2024-06-27 15:32:14.204000,0.0990661051089544
2024-06-27 15:32:14.208000,0.08597326496978576
2024-06-27 15:32:14.212000,0.07004211682841971
2024-06-27 15:32:14.216000,0.05356161875114448
2024-06-27 15:32:14.220000,0.03836293719099066
2024-06-27 15:32:14.224000,0.024629188793261307
