Timestamp,ECG Voltage (mV)
02:31,1.393059879143014
02:31,1.4164988097418054
02:31,1.4295916498809742
02:31,1.4295000915583227
02:31,1.4186962094854423
02:31,1.402032594762864
02:31,1.3856436550082403
02:31,1.3751144479033144
02:31,1.3710858817066471
02:31,1.3608313495696758
02:31,1.3208203625709578
02:31,1.2424464383812488
02:31,1.1536348654092656
02:31,1.0922907892327414
02:31,1.0618934261124335
02:31,1.033052554477202
02:31,0.9826954770188611
02:31,0.9156747848379417
02:31,0.8514008423365684
02:31,0.8006775315876213
02:31,0.7625892693645853
02:31,0.7367698223768541
02:31,0.7218458157846548
02:31,0.7106757004211682
02:31,0.6941036440212416
02:31,0.6677348470976012
02:31,0.6367881340413843
02:31,0.6134407617652444
02:31,0.6054751876945614
02:31,0.6094121955685772
02:31,0.616462186412745
02:31,0.6194836110602454
02:31,0.6148141366050174
02:31,0.6022706464017579
02:31,0.5875297564548617
02:31,0.5759934078007691
02:31,0.5607947262406153
02:31,0.5286577549899286
02:31,0.4744552279802234
02:31,0.40139168650430324
02:31,0.3160593297930782
02:31,0.23228346456692914
02:31,0.16297381431972166
02:31,0.09879143014099982
02:31,0.008698040651895257
02:31,-0.11920893609229079
02:31,-0.2612158945248123
02:31,-0.3924189708844534
02:31,-0.5068668741988647
02:31,-0.6019044131111518
02:31,-0.6764328877494964
02:31,-0.7423548800585973
02:31,-0.8096502472074711
02:31,-0.8747482146127082
02:31,-0.9421351400842336
02:31,-1.0281084050540195
02:31,-1.1273576268082768
02:31,-1.2102179088079106
02:31,-1.2619483611060245
02:31,-1.2938106573887567
02:31,-1.3189891961179272
02:31,-1.3393151437465665
02:31,-1.3500274674967954
02:31,-1.3500274674967954
02:31,-1.3448086431056583
02:31,-1.3389489104559604
02:31,-1.3305255447720197
02:31,-1.3183482878593664
02:31,-1.3111151803698957
02:31,-1.3164255630836843
02:31,-1.3278703534151255
02:31,-1.3337300860648234
02:31,-1.3269547701886102
02:31,-1.3047060977842886
02:31,-1.274491851309284
02:31,-1.2501373374839773
02:31,-1.2349386559238236
02:31,-1.2212964658487457
02:31,-1.2037172678996522
02:31,-1.1854971616919978
02:31,-1.1700238051638894
02:31,-1.1550082402490387
02:31,-1.1365134590734298
02:31,-1.1117011536348653
02:31,-1.0829518403222853
02:31,-1.0576817432704633
02:31,-1.0391869620948544
02:31,-1.0226149056949276
02:31,-1.0022889580662881
02:31,-0.97784288591833
02:31,-0.9517487639626442
02:31,-0.9248306171030947
02:31,-0.8965390954037722
02:31,-0.8645852407983886
02:31,-0.829518403222853
02:31,-0.799945065006409
02:31,-0.7834645669291339
02:31,-0.7740340596960263
02:31,-0.7565464200695843
02:31,-0.7205639992675335
02:31,-0.6703900384544955
02:31,-0.6234206189342612
02:31,-0.5940303973631204
02:31,-0.5816700238051639
02:31,-0.5737044497344809
02:31,-0.5569492766892511
02:31,-0.5319538546053836
02:31,-0.5094305072331075
02:31,-0.4958798754806812
02:31,-0.4892876762497711
02:31,-0.4851675517304523
02:31,-0.4752792528840872
02:31,-0.44881889763779526
02:31,-0.40432155282915216
02:31,-0.3555209668558872
02:31,-0.3187145211499725
02:31,-0.29976194836110603
02:31,-0.2946346822926204
02:31,-0.2959164988097418
02:31,-0.2981138985533785
02:31,-0.2987548068119392
02:31,-0.29628273210034795
02:31,-0.29014832448269545
02:31,-0.2842885918329976
02:31,-0.28566196667277055
02:31,-0.29728987364951476
02:31,-0.3165171214063358
02:31,-0.33931514374656657
02:31,-0.36000732466581215
02:31,-0.3734663980955869
02:31,-0.3812488555209669
02:31,-0.38921442959164987
02:31,-0.4003845449551364
02:31,-0.41274491851309286
02:31,-0.4220838674235488
02:31,-0.4267533418787768
02:31,-0.4256546420069584
02:31,-0.4144845266434719
02:31,-0.38939754623695294
02:31,-0.3576268082768724
02:31,-0.3340047610327779
02:31,-0.32567295367148874
02:31,-0.332814502838308
02:31,-0.35808459989013003
02:31,-0.4018494781175609
02:31,-0.45202343893059876
02:31,-0.4915766343160593
02:31,-0.5138253067203808
02:31,-0.5223402307269731
02:31,-0.5244460721479582
02:31,-0.5251785387291705
02:31,-0.521790880791064
02:31,-0.5044863578099249
02:31,-0.46713056216810106
02:31,-0.41723127632301776
02:31,-0.3639443325398279
02:31,-0.3085515473356528
02:31,-0.26185680278337303
02:31,-0.23951657205639992
02:31,-0.23869254715253616
02:31,-0.2488555209668559
02:31,-0.2600256363303424
02:31,-0.2583775865226149
02:31,-0.23786852224867241
02:31,-0.19721662699139353
02:31,-0.13633034242812672
02:31,-0.07480314960629922
02:31,-0.046511627906976744
02:31,-0.06061160959531221
02:31,-0.09045962277971067
02:31,-0.10465116279069768
02:31,-0.08331807361289141
02:31,-0.027559055118110236
02:31,0.03076359641091375
02:31,0.05832265152902399
02:31,0.060336934627357626
02:31,0.06390770921076726
02:31,0.07846548251236038
02:31,0.09476286394433255
02:31,0.10510895440395532
02:31,0.10996154550448636
02:31,0.11408167002380516
02:31,0.12021607764145761
02:31,0.12415308551547335
02:31,0.1217725691265336
02:31,0.11774400292986632
02:31,0.12076542757736679
02:31,0.13358359274858084
02:31,0.1510712323750229
02:31,0.16553744735396447
02:31,0.1750595129097235
02:31,0.18183482878593665
02:31,0.18275041201245193
02:31,0.17368613806995056
02:31,0.156106940120857
02:31,0.13349203442592933
02:31,0.10922907892327413
02:31,0.08789598974546786
02:31,0.07407068302508699
02:31,0.06766160043947995
02:31,0.06335835927485808
02:31,0.05502655191356894
02:31,0.0403772202893243
02:31,0.020875297564548617
02:31,0.00027467496795458707
02:31,-0.01858633949826039
02:31,-0.036989562351217725
02:31,-0.05603369346273576
02:31,-0.07141549166819264
02:31,-0.07837392418970884
02:31,-0.07846548251236038
02:31,-0.07690899102728438
02:31,-0.07965574070683025
02:31,-0.09000183116645304
02:31,-0.10428492950009156
02:31,-0.11499725325032045
02:31,-0.12158945248123054
02:31,-0.1312030763596411
02:31,-0.14777513275956786
02:31,-0.16709393883904047
02:31,-0.18540560336934628
02:31,-0.20362570957700055
02:31,-0.22376854056033693
02:31,-0.24620032960996155
02:31,-0.26963926020875295
02:31,-0.29197949093572606
02:31,-0.3107489470792895
02:31,-0.32411646218641277
02:31,-0.332814502838308
02:31,-0.34151254349020327
02:31,-0.3542391503387658
02:31,-0.36568394067020693
02:31,-0.36513459073429777
02:31,-0.35286577549899284
02:31,-0.3416041018128548
02:31,-0.3406885185863395
02:31,-0.3477385094305072
02:31,-0.3526826588536898
02:31,-0.34966123420618933
02:31,-0.342336568394067
02:31,-0.33647683574436915
02:31,-0.332814502838308
02:31,-0.3296099615455045
02:31,-0.32576451199414025
02:31,-0.32008789598974546
02:31,-0.31258011353232007
02:31,-0.3035158395898187
02:31,-0.2916132576451199
02:31,-0.2782457425379967
02:31,-0.26725874381981324
02:31,-0.2573704449734481
02:31,-0.24565097967405236
02:31,-0.23832631386193004
02:31,-0.2419886467679912
02:31,-0.24848928767624978
02:31,-0.24592565464200697
02:31,-0.23420618934261125
02:31,-0.2204724409448819
02:31,-0.2075627174510163
02:31,-0.19410364402124153
02:31,-0.18009522065555758
02:31,-0.1669108221937374
02:31,-0.15262772386009887
02:31,-0.137245925654642
02:31,-0.1274491851309284
02:31,-0.13047060977842886
02:31,-0.14594396630653728
02:31,-0.1618751144479033
02:31,-0.1646218641274492
02:31,-0.15464200695843253
02:31,-0.13926020875297565
02:31,-0.12030763596410914
02:31,-0.10089727156198498
02:31,-0.08661417322834646
02:31,-0.08276872367698224
02:31,-0.09036806445705915
02:31,-0.10208752975645487
02:31,-0.10968687053653177
02:31,-0.11179271195751694
02:31,-0.11087712873100165
02:31,-0.10803882072880425
02:31,-0.10227064640175793
02:31,-0.09219923091008973
02:31,-0.07571873283281451
02:31,-0.05145577733015931
02:31,-0.02517853872917048
02:31,-0.006775315876213148
02:31,0.003479216260758103
02:31,0.013550631752426295
02:31,0.02719282182750412
02:31,0.04120124519318806
02:31,0.05218824391137154
02:31,0.05932979307819081
02:31,0.06354147592016114
02:31,0.06583043398644937
02:31,0.06811939205273759
02:31,0.07342977476652628
02:31,0.08313495696758835
02:31,0.09201611426478667
02:31,0.0955868888481963
02:31,0.09631935542940853
02:31,0.10007324665812123
02:31,0.10840505401941036
02:31,0.11572971983153268
02:31,0.11600439479948728
02:31,0.10886284563266801
02:31,0.09595312213880242
02:31,0.08203625709577
02:31,0.07471159128364768
02:31,0.07819080754440579
02:31,0.09183299761948362
02:31,0.11792711957516938
02:31,0.1567478483794177
02:31,0.20133675151071231
02:31,0.2483061710309467
02:31,0.2904229994506501
02:31,0.3067203808826222
02:31,0.2841970335103461
02:31,0.22578282365867058
02:31,0.14429591649880974
02:31,0.06326680095220656
02:31,0.0016480498077275224
02:31,-0.04660318622962827
02:31,-0.08853689800402857
02:31,-0.10455960446804614
02:31,-0.08542391503387659
02:31,-0.050997985716901666
02:31,-0.015198681560153818
02:31,0.023805163889397546
02:31,0.06546420069584326
02:31,0.10318622962827322
02:31,0.1334004761032778
02:31,0.15857901483244827
02:31,0.18091924555942135
02:31,0.19675883537813588
02:31,0.2012451931880608
02:31,0.19675883537813588
02:31,0.1898919611792712
02:31,0.182933528657755
02:31,0.17615821278154184
02:31,0.16974913019593482
02:31,0.16443874748214612
02:31,0.1621497894158579
02:31,0.16288225599707012
02:31,0.1669108221937374
02:31,0.1747848379417689
02:31,0.182933528657755
02:31,0.1883354696941952
02:31,0.19227247756821095
02:31,0.19584325215162057
02:31,0.19584325215162057
02:31,0.1870536531770738
02:31,0.16800952206555575
02:31,0.14603552462918878
02:31,0.13147775132759568
02:31,0.12717451016297382
02:31,0.1300128181651712
02:31,0.1371543673319905
02:31,0.14612708295184032
02:31,0.15418421534517487
02:31,0.1593114814136605
02:31,0.1593114814136605
02:31,0.152993957150705
02:31,0.14365500824024904
02:31,0.13614722578282365
02:31,0.13147775132759568
02:31,0.12992125984251968
02:31,0.13358359274858084
02:31,0.1435634499175975
02:31,0.15793810657388757
02:31,0.17084783006775317
02:31,0.17798937923457242
02:31,0.1803698956235122
02:31,0.18174327046328512
02:31,0.18339132027101263
02:31,0.18449002014283097
02:31,0.18284197033510347
02:31,0.1738692547152536
02:31,0.15464200695843253
02:31,0.1306537264237319
02:31,0.11188427028016847
02:31,0.10208752975645487
02:31,0.09796740523713605
02:31,0.09540377220289324
02:31,0.09128364768357444
02:31,0.08185314045046695
02:31,0.0652810840505402
02:31,0.04614539461637063
02:31,0.03103827137886834
02:31,0.020325947628639443
02:31,0.011811023622047244
02:31,0.006317524262955503
02:31,0.003479216260758103
02:31,-0.0003662332906061161
02:31,-0.008331807361289141
02:31,-0.023072697308185314
02:31,-0.048159677714704266
02:31,-0.07874015748031496
02:31,-0.09897454678630288
02:31,-0.10080571323933346
02:31,-0.09384728071781726
02:31,-0.0892693645852408
02:31,-0.0886284563266801
02:31,-0.09009338948910456
02:31,-0.09540377220289324
02:31,-0.10776414576084967
02:31,-0.12543490203259478
02:31,-0.14154916681926388
02:31,-0.15216993224684125
02:31,-0.1580296648965391
02:31,-0.16068485625343343
02:31,-0.1618751144479033
02:31,-0.16233290606116096
02:31,-0.1608679728987365
02:31,-0.15445889031312945
02:31,-0.14246475004577916
02:31,-0.12937190990661052
02:31,-0.12104010254532137
02:31,-0.11820179454312398
02:31,-0.11756088628456327
02:31,-0.11627906976744186
02:31,-0.11087712873100165
02:31,-0.09760117194652994
02:31,-0.07745834096319355
02:31,-0.0580479765610694
02:31,-0.04715253616553745
02:31,-0.04568760300311298
02:31,-0.04944149423182567
02:31,-0.05438564365500824
02:31,-0.058597326496978575
02:31,-0.062259659403039735
02:31,-0.06335835927485808
02:31,-0.05420252700970518
02:31,-0.026826588536898004
02:31,0.012726606848562534
02:31,0.04678630287493133
02:31,0.06628822559970701
02:31,0.07608496612342062
02:31,0.08276872367698224
02:31,0.08936092290789233
02:31,0.09750961362387842
02:31,0.10776414576084967
02:31,0.12012451931880608
02:31,0.1337667093938839
02:31,0.14429591649880974
02:31,0.14621864127449186
02:31,0.14173228346456693
02:31,0.1377952755905512
02:31,0.13806995055850577
02:31,0.14118293352865777
02:31,0.14649331624244644
02:31,0.15729719831532687
02:31,0.17487639626442045
02:31,0.19346273576268083
02:31,0.20609778428859182
02:31,0.2125984251968504
02:31,0.21626075810291157
02:31,0.22001464933162423
02:31,0.2289873649514741
02:31,0.24812305438564367
02:31,0.27366782640542026
02:31,0.29454312396996885
02:31,0.30287493133125803
02:31,0.2939022157114082
02:31,0.2655191356894342
02:31,0.22770554843435267
02:31,0.19886467679912104
02:31,0.18549716169199781
02:31,0.18110236220472442
02:31,0.17991210401025454
02:31,0.18055301226881523
02:31,0.18256729536714889
02:31,0.18439846182017947
02:31,0.18568027833730086
02:31,0.19126533601904414
02:31,0.2088445339681377
02:31,0.24015748031496062
02:31,0.2787950924739059
02:31,0.3145028383080022
02:31,0.33858267716535434
02:31,0.348562534334371
02:31,0.3502105841420985
02:31,0.3499359091741439
02:31,0.3495696758835378
02:31,0.34718915949459805
02:31,0.33931514374656657
02:31,0.32439113715436735
02:31,0.3066288225599707
02:31,0.2939937740340597
02:31,0.2892327412561802
02:31,0.28886650796557406
02:31,0.28969053286943786
02:31,0.2916132576451199
02:31,0.29573338216443873
02:31,0.3005859732649698
02:31,0.30269181468595496
02:31,0.2981138985533785
02:31,0.2830067753158762
02:31,0.2570957700054935
02:31,0.22752243178904963
02:31,0.208203625709577
02:31,0.20985167551730452
02:31,0.22724775682109505
02:31,0.24565097967405236
02:31,0.2615821278154184
02:31,0.2772386009888299
02:31,0.2854788500274675
02:31,0.27604834279436
02:31,0.24116462186412746
02:31,0.17084783006775317
02:31,0.07379600805713239
02:31,-0.01583958981871452
02:31,-0.07123237502288958
02:31,-0.0857901483244827
02:31,-0.06491485075993408
02:31,-0.03103827137886834
02:31,-0.011353232008789599
02:31,-0.007965574070683025
02:31,-0.0027467496795458707
02:31,0.009247390587804431
02:31,0.01959348104742721
02:31,0.023622047244094488
02:31,0.02069218091924556
02:31,0.012909723493865592
02:31,0.006409082585607032
02:31,0.003937007874015748
02:31,0.0026551913568943417
02:31,-0.0010986998718183483
02:31,-0.007690899102728438
02:31,-0.011627906976744186
02:31,-0.009155832265152902
02:31,-0.00659219923091009
02:31,-0.011994140267350302
02:31,-0.020783739241897088
02:31,-0.02343893059879143
02:31,-0.017304522981138985
02:31,-0.007141549166819264
02:31,0.0006409082585607032
02:31,0.00375389122871269
02:31,0.004577916132576451
02:31,0.004944149423182567
02:31,0.004303241164621864
02:31,0.0009155832265152902
02:31,-0.005493499359091741
02:31,-0.013275956784471708
02:31,-0.01876945614356345
02:31,-0.01867789782091192
02:31,-0.013001281816517121
02:31,-0.004577916132576451
02:31,0.00466947445522798
02:31,0.014557773301593115
02:31,0.023713605566746017
02:31,0.031221388024171397
02:31,0.03625709577000549
02:31,0.03671488738326314
02:31,0.031129829701519868
02:31,0.01977659769273027
02:31,0.0061344076176524445
02:31,-0.005127266068485625
02:31,-0.011444790331441128
02:31,-0.01217725691265336
02:31,-0.006958432521516206
02:31,0.003387657938106574
02:31,0.016114264786669108
02:31,0.028383080021973997
02:31,0.039919428676066654
02:31,0.05310382713788683
02:31,0.07013367515107123
02:31,0.09045962277971067
02:31,0.11270829518403223
02:31,0.1371543673319905
02:31,0.1603186229628273
02:31,0.17533418787767807
02:31,0.18055301226881523
02:31,0.18128547885002746
02:31,0.18165171214063358
02:31,0.18027833730086065
02:31,0.1716718549716169
02:31,0.15216993224684125
02:31,0.1252517853872917
02:31,0.0984251968503937
02:31,0.07352133308917781
02:31,0.048159677714704266
02:31,0.020234389305987914
02:31,-0.012451931880607947
02:31,-0.0523713605566746
02:31,-0.09869987181834829
02:31,-0.14832448269547702
02:31,-0.19767441860465115
02:31,-0.244552279802234
02:31,-0.2841970335103461
02:31,-0.30955868888481963
02:31,-0.3195385460538363
02:31,-0.3195385460538363
02:31,-0.31505218824391135
02:31,-0.3088262223036074
02:31,-0.30076908991027285
02:31,-0.2876762497711042
02:31,-0.2675334187877678
02:31,-0.24308734663980955
02:31,-0.21616919978026003
02:31,-0.1879692364035891
02:31,-0.1621497894158579
02:31,-0.1429225416590368
02:31,-0.12754074345357994
02:31,-0.10794726240615272
02:31,-0.07782457425379967
02:31,-0.03827137886833913
02:31,0.0
02:31,0.023164255630836843
02:31,0.029573338216443874
02:31,0.028291521699322468
02:31,0.026918146859549533
02:31,0.02710126350485259
02:31,0.02810840505401941
02:31,0.029390221571140816
02:31,0.02993957150704999
02:31,0.026460355246291888
02:31,0.016205823109320637
02:31,0.0021058414209851675
02:31,-0.008148690715986083
02:31,-0.011719465299395715
02:31,-0.01126167368613807
02:31,-0.01034609045962278
02:31,-0.010620765427577367
02:31,-0.011994140267350302
02:31,-0.012085698590001831
02:31,-0.006958432521516206
02:31,0.004944149423182567
02:31,0.01858633949826039
02:31,0.026735030214246475
02:31,0.028383080021973997
02:31,0.02609412195568577
02:31,0.022248672404321553
02:31,0.019227247756821095
02:31,0.018220106207654276
02:31,0.019044131111518037
02:31,0.020051272660684856
02:31,0.018128547885002746
02:31,0.009979857169016663
02:31,-0.0028383080021973997
02:31,-0.014557773301593115
02:31,-0.02151620582310932
02:31,-0.025086980406518952
02:31,-0.02893242995788317
02:31,-0.03543307086614173
02:31,-0.04495513642190075
02:31,-0.05603369346273576
02:31,-0.06546420069584326
02:31,-0.07013367515107123
02:31,-0.07004211682841971
02:31,-0.06821095037538913
02:31,-0.06775315876213148
02:31,-0.07031679179637429
02:31,-0.07425379967039004
02:31,-0.0744369163156931
02:31,-0.06903497527925288
02:31,-0.0639992675334188
02:31,-0.06619666727705549
02:31,-0.07562717451016297
02:31,-0.08496612342061893
02:31,-0.08560703167917964
02:31,-0.07800769089910273
02:31,-0.07022523347372277
02:31,-0.06692913385826772
02:31,-0.06555575901849478
02:31,-0.06280900933894891
02:31,-0.06006225965940304
02:31,-0.06253433437099433
02:31,-0.07352133308917781
02:31,-0.09000183116645304
02:31,-0.10941219556857719
02:31,-0.13349203442592933
02:31,-0.15903680644570592
02:31,-0.17624977110419338
02:31,-0.18156015381798205
02:31,-0.18027833730086065
02:31,-0.17716535433070865
02:31,-0.1722212049075261
02:31,-0.16489653909540378
02:31,-0.15757187328328146
02:31,-0.152993957150705
02:31,-0.15134590734297748
02:31,-0.1507965574070683
02:31,-0.15043032411646218
02:31,-0.15070499908441679
02:31,-0.15317707379600806
02:31,-0.15921992309100896
02:31,-0.16892510529207105
02:31,-0.18064457059146677
02:31,-0.19034975279252883
02:31,-0.1949276689251053
02:31,-0.19511078557040834
02:31,-0.19392052737593848
02:31,-0.19263871085881706
02:31,-0.19227247756821095
02:31,-0.195568577183666
02:31,-0.20261856802783373
02:31,-0.2025270097051822
02:31,-0.1763413294268449
02:31,-0.11664530305804797
02:31,-0.04202527009705182
02:31,0.02142464750045779
02:31,0.06683757553561619
02:31,0.10117194652993958
02:31,0.12973814319721663
02:31,0.15290239882805348
02:31,0.1662699139351767
02:31,0.15564914850759934
02:31,0.1025453213697125
02:31,0.01309284013916865
02:31,-0.08029664896539096
02:31,-0.1527192821827504
02:31,-0.18568027833730086
02:31,-0.1662699139351767
02:31,-0.11197582860282
02:31,-0.06207654275773668
02:31,-0.043673319904779344
02:31,-0.05337850210584142
02:31,-0.06802783373008607
02:31,-0.07324665812122322
02:31,-0.0706830250869804
02:31,-0.06409082585607032
02:31,-0.05447720197765977
02:31,-0.04248306171030947
02:31,-0.03259476286394433
02:31,-0.03268632118659586
02:31,-0.0438564365500824
02:31,-0.05932979307819081
02:31,-0.0722395165720564
02:31,-0.0801135323200879
02:31,-0.08405054019410364
02:31,-0.0845083318073613
02:31,-0.08139534883720931
02:31,-0.07526094121955686
02:31,-0.06903497527925288
02:31,-0.06702069218091924
02:31,-0.070957700054935
02:31,-0.07590184947811757
02:31,-0.07342977476652628
02:31,-0.05923823475553928
02:31,-0.03909540377220289
02:31,-0.02444607214795825
02:31,-0.020234389305987914
02:31,-0.02243178904962461
02:31,-0.025911005310382713
02:31,-0.028474638344625526
02:31,-0.029481779893792345
02:31,-0.02728438015015565
02:31,-0.019868156015381798
02:31,-0.0060428492950009155
02:31,0.013459073429774766
02:31,0.03634865409265702
02:31,0.06106940120856986
02:31,0.08551547335652811
02:31,0.10593297930781909
02:31,0.12094854422266985
02:31,0.13257645119941402
02:31,0.14127449185130928
02:31,0.14713422450100713
02:31,0.14988097418055302
02:31,0.14960629921259844
02:31,0.14841604101812855
02:31,0.15143746566562902
02:31,0.16407251419154
02:31,0.18540560336934628
02:31,0.2078373924189709
02:31,0.22505035707745835
02:31,0.23667826405420253
02:31,0.24555942135140085
02:31,0.2536165537447354
02:31,0.25947628639443326
02:31,0.26167368613806996
02:31,0.2612158945248123
02:31,0.2604834279436001
02:31,0.2613990111701154
02:31,0.26515290239882805
02:31,0.27275224317890495
02:31,0.28309833363852777
02:31,0.29234572422633215
02:31,0.2971983153268632
02:31,0.2981138985533785
02:31,0.2965574070683025
02:31,0.2930781908075444
02:31,0.28749313312580116
02:31,0.2798022340230727
02:31,0.2700970518220106
02:31,0.2591100531038271
02:31,0.24821461270829517
02:31,0.23905878044314227
02:31,0.23255813953488372
02:31,0.22852957333821644
02:31,0.22669840688518586
02:31,0.22532503204541293
02:31,0.22028932429957884
02:31,0.20838674235488006
02:31,0.18806079472624063
02:31,0.16013550631752427
02:31,0.12928035158395898
02:31,0.10318622962827322
02:31,0.08817066471342246
02:31,0.08203625709577
02:31,0.07709210767258744
02:31,0.06857718366599524
02:31,0.0580479765610694
02:31,0.048159677714704266
02:31,0.04147592016114265
02:31,0.03854605383629372
02:31,0.03772202893242996
02:31,0.036898004028566196
02:31,0.03552462918879326
02:31,0.03378502105841421
02:31,0.03195385460538363
02:31,0.03158762131477751
02:31,0.034151254349020325
02:31,0.03845449551364219
02:31,0.041750595129097234
02:31,0.04248306171030947
02:31,0.04129280351583959
02:31,0.04056033693462736
02:31,0.04394799487273393
02:31,0.05420252700970518
02:31,0.06766160043947995
02:31,0.07599340780076909
02:31,0.07626808276872368
02:31,0.07407068302508699
02:31,0.07452847463834462
02:31,0.07700054934993592
02:31,0.07910639077092108
02:31,0.08121223219190625
02:31,0.08377586522614906
02:31,0.0857901483244827
02:31,0.08606482329243728
02:31,0.08496612342061893
02:31,0.08340963193554295
02:31,0.08267716535433071
02:31,0.0842336568394067
02:31,0.08881157297198315
02:31,0.09512909723493866
02:31,0.09851675517304523
02:31,0.09274858084599891
02:31,0.07626808276872368
02:31,0.05969602636879692
02:31,0.05813953488372093
02:31,0.0706830250869804
02:31,0.07974729902948179
02:31,0.07407068302508699
02:31,0.0602453763047061
02:31,0.04989928584508332
02:31,0.044405786485991576
02:31,0.0375389122871269
02:31,0.027742171763413294
02:31,0.019318806079472624
02:31,0.01492400659219923
02:31,0.013275956784471708
02:31,0.013275956784471708
02:31,0.0176707562717451
02:31,0.02984801318439846
02:31,0.04660318622962827
02:31,0.058688884819630104
02:31,0.06079472624061527
02:31,0.054751876945614356
02:31,0.04614539461637063
02:31,0.04028566196667277
02:31,0.0375389122871269
02:31,0.03460904596227797
02:31,0.028383080021973997
02:31,0.019501922724775682
02:31,0.010712323750228896
02:31,0.0021058414209851675
02:31,-0.00750778245742538
02:31,-0.016480498077275224
02:31,-0.021149972532503204
02:31,-0.021241530855154733
02:31,-0.019501922724775682
02:31,-0.018128547885002746
02:31,-0.0176707562717451
02:31,-0.018952572788866508
02:31,-0.022889580662882256
02:31,-0.029298663248489287
02:31,-0.03634865409265702
02:31,-0.04193371177440029
02:31,-0.04513825306720381
02:31,-0.046236952939022156
02:31,-0.046511627906976744
02:31,-0.046511627906976744
02:31,-0.04614539461637063
02:31,-0.046420069584325215
02:31,-0.04779344442409815
02:31,-0.04971616919978026
02:31,-0.05145577733015931
02:31,-0.054843435268265885
02:31,-0.06436550082402491
02:31,-0.08167002380516389
02:31,-0.10117194652993958
02:31,-0.11682841970335103
02:31,-0.12882255997070133
02:31,-0.14045046694744553
02:31,-0.15290239882805348
02:31,-0.16654458890313129
02:31,-0.17972898736495146
02:31,-0.18925105292071048
02:31,-0.19511078557040834
02:31,-0.20023805163889397
02:31,-0.2075627174510163
02:31,-0.22065555759018496
02:31,-0.24125618018677897
02:31,-0.2659769273026918
02:31,-0.2927119575169383
02:31,-0.3165171214063358
02:31,-0.31596777147042665
02:31,-0.2753158762131478
02:31,-0.21122505035707745
02:31,-0.1507965574070683
02:31,-0.10510895440395532
02:31,-0.0763596410913752
02:31,-0.06894341695660136
02:31,-0.08789598974546786
02:31,-0.14191540010987
02:31,-0.23072697308185314
02:31,-0.3321735945797473
02:31,-0.42071049258377585
02:31,-0.4748214612708295
02:31,-0.47775132759567845
02:31,-0.43993774034059696
02:31,-0.3896722212049075
02:31,-0.34490020142830985
02:31,-0.3110236220472441
02:31,-0.284013916865043
02:31,-0.25865226149056947
02:31,-0.2369529390221571
02:31,-0.22257828236586705
02:31,-0.21589452481230545
02:31,-0.2148873832631386
02:31,-0.2158029664896539
02:31,-0.21552829152169933
02:31,-0.21378868339132026
02:31,-0.2123237502288958
02:31,-0.2110419337117744
02:31,-0.208203625709577
02:31,-0.20490752609412197
02:31,-0.2040835011902582
02:31,-0.20673869254715255
02:31,-0.21177440029298664
02:31,-0.21836659952389673
02:31,-0.22651529023988282
02:31,-0.2349386559238235
02:31,-0.2403405969602637
02:31,-0.24088994689617285
02:31,-0.23667826405420253
02:31,-0.23008606482329244
02:31,-0.22395165720564
02:31,-0.2198315326863212
02:31,-0.2164438747482146
02:31,-0.2122321919062443
02:31,-0.20646401757919794
02:31,-0.1993224684123787
02:31,-0.19245559421351402
02:31,-0.18870170298480132
02:31,-0.1896172862113166
02:31,-0.1921809192455594
02:31,-0.19154001098699872
02:31,-0.18476469511078558
02:31,-0.16984068851858633
02:31,-0.14878227430873467
02:31,-0.12891411829335286
02:31,-0.11554660318622963
02:31,-0.10593297930781909
02:31,-0.09329793078190808
02:31,-0.07370444973448087
02:31,-0.05072331074894708
02:31,-0.032320087895989745
02:31,-0.02142464750045779
02:31,-0.014557773301593115
02:31,-0.006866874198864677
02:31,0.0060428492950009155
02:31,0.027650613440761765
02:31,0.058414209851675516
02:31,0.09384728071781726
02:31,0.1268082768723677
02:31,0.15134590734297748
02:31,0.1659036806445706
02:31,0.1737776963926021
02:31,0.181377037172679
02:31,0.19410364402124153
02:31,0.2101263504852591
02:31,0.22166269913935177
02:31,0.22550814869071598
02:31,0.22514191540010986
02:31,0.2245925654642007
02:31,0.22505035707745835
02:31,0.22505035707745835
02:31,0.2201977659769273
02:31,0.20618934261124336
02:31,0.18622962827321005
02:31,0.16956601355063175
02:31,0.16123420618934262
02:31,0.15876213147775134
02:31,0.15949459805896357
02:31,0.16315693096502473
02:31,0.17048159677714705
02:31,0.17972898736495146
02:31,0.1864127449185131
02:31,0.18879326130745286
02:31,0.18870170298480132
02:31,0.18723676982237686
02:31,0.18430690349752793
02:31,0.18000366233290607
02:31,0.17460172129646584
02:31,0.1678264054202527
02:31,0.16050173960813038
02:31,0.15528291521699322
02:31,0.15262772386009887
02:31,0.1501556491485076
02:31,0.14704266617835562
02:31,0.14521149972532504
02:31,0.14594396630653728
02:31,0.14777513275956786
02:31,0.14704266617835562
02:31,0.14154916681926388
02:31,0.13367515107123237
02:31,0.1296465848745651
02:31,0.13394982603918695
02:31,0.1447537081120674
02:31,0.15683940670206922
02:31,0.16672770554843436
02:31,0.17396081303790514
02:31,0.17771470426661784
02:31,0.1750595129097235
02:31,0.1643471891594946
02:31,0.14905694927668925
02:31,0.13651345907342977
02:31,0.13010437648782275
02:31,0.12854788500274675
02:31,0.12882255997070133
02:31,0.12918879326130744
02:31,0.1290056766160044
02:31,0.12873100164804982
02:31,0.12891411829335286
02:31,0.1300128181651712
02:31,0.13166086797289875
02:31,0.13367515107123237
02:31,0.13614722578282365
02:31,0.13825306720380884
02:31,0.1381615088811573
02:31,0.1353232008789599
02:31,0.1305621681010804
02:31,0.12625892693645852
02:31,0.12369529390221572
02:31,0.12232191906244277
02:31,0.1195751693828969
02:31,0.11252517853872918
02:31,0.1006225965940304
02:31,0.0857901483244827
02:31,0.07022523347372277
02:31,0.052829152169932246
02:31,0.034334370994323384
02:31,0.01977659769273027
02:31,0.012543490203259476
02:31,0.010712323750228896
02:31,0.010986998718183483
02:31,0.010986998718183483
02:31,0.010529207104925838
02:31,0.010529207104925838
02:31,0.01034609045962278
02:31,0.006409082585607032
02:31,-0.004577916132576451
02:31,-0.020142830983336385
02:31,-0.03268632118659586
02:31,-0.03744735396447537
02:31,-0.03744735396447537
02:31,-0.039003845449551364
02:31,-0.046328511261673685
02:31,-0.05731550997985717
02:31,-0.06564731734114632
02:31,-0.06848562534334371
02:31,-0.06784471708478301
02:31,-0.06665445889031313
02:31,-0.06692913385826772
02:31,-0.07031679179637429
02:31,-0.07590184947811757
02:31,-0.07956418238417873
02:31,-0.08047976561069402
02:31,-0.08350119025819447
02:31,-0.08981871452114998
02:31,-0.0949459805896356
02:31,-0.09393883904046878
02:31,-0.08414209851675518
02:31,-0.07150704999084417
02:31,-0.06711225050357078
02:31,-0.07306354147592016
02:31,-0.08185314045046695
02:31,-0.08716352316425563
02:31,-0.08872001464933163
02:31,-0.09000183116645304
02:31,-0.0933894891045596
02:31,-0.0971433803332723
02:31,-0.09879143014099982
02:31,-0.09705182201062076
02:31,-0.0921076725874382
02:31,-0.08652261490569493
02:31,-0.08350119025819447
02:31,-0.08395898187145212
02:31,-0.08597326496978576
02:31,-0.08542391503387659
02:31,-0.08121223219190625
02:31,-0.07809924922175426
02:31,-0.08112067386925471
02:31,-0.08835378135872551
02:31,-0.09247390587804431
02:31,-0.08789598974546786
02:31,-0.07416224134773851
02:31,-0.056583043398644936
02:31,-0.04596227797106757
02:31,-0.047335652810840505
02:31,-0.054751876945614356
02:31,-0.06070316791796374
02:31,-0.05227980223402307
02:31,-0.013275956784471708
02:31,0.052829152169932246
02:31,0.12442776048342795
02:31,0.18247573704449735
02:31,0.21589452481230545
02:31,0.2176341329426845
02:31,0.1826588536898004
02:31,0.1097784288591833
02:31,0.013550631752426295
02:31,-0.07242263321735946
02:31,-0.11884270280168467
02:31,-0.1195751693828969
02:31,-0.09073429774766527
02:31,-0.05914667643288775
02:31,-0.04248306171030947
02:31,-0.039003845449551364
02:31,-0.03561618751144479
02:31,-0.020783739241897088
02:31,0.004303241164621864
02:31,0.02627723860098883
02:31,0.03479216260758103
02:31,0.03277787950924739
02:31,0.027925288408716352
02:31,0.02444607214795825
02:31,0.02426295550265519
02:31,0.027467496795458707
02:31,0.03268632118659586
02:31,0.03735579564182384
02:31,0.03634865409265702
02:31,0.025911005310382713
02:31,0.007965574070683025
02:31,-0.010803882072880425
02:31,-0.023255813953488372
02:31,-0.027467496795458707
02:31,-0.02801684673136788
02:31,-0.029207104925837758
02:31,-0.03204541292803516
02:31,-0.034242812671671854
02:31,-0.03296099615455045
02:31,-0.02819996337667094
02:31,-0.021790880791063907
02:31,-0.01886101446621498
02:31,-0.02069218091924556
02:31,-0.02234023072697308
02:31,-0.023164255630836843
02:31,-0.029390221571140816
02:31,-0.04092657022523347
02:31,-0.05182201062076543
02:31,-0.05777330159311481
02:31,-0.059604468046145394
02:31,-0.05987914301409998
02:31,-0.05896355978758469
02:31,-0.05365317707379601
02:31,-0.0432155282915217
02:31,-0.034151254349020325
02:31,-0.031496062992125984
02:31,-0.031312946346822926
02:31,-0.029390221571140816
02:31,-0.02700970518220106
02:31,-0.02609412195568577
02:31,-0.025727888665079655
02:31,-0.021241530855154733
02:31,-0.007324665812122322
02:31,0.014191540010986999
02:31,0.035066837575535616
02:31,0.04980772752243179
02:31,0.060336934627357626
02:31,0.07077458340963194
02:31,0.08139534883720931
02:31,0.08872001464933163
02:31,0.08844533968137704
02:31,0.07709210767258744
02:31,0.05548434352682659
02:31,0.0325032045412928
02:31,0.01858633949826039
02:31,0.014649331624244644
02:31,0.013825306720380882
02:31,0.010437648782274309
02:31,0.004852591100531038
02:31,-0.00027467496795458707
02:31,-0.005310382713788683
02:31,-0.014557773301593115
02:31,-0.0318622962827321
02:31,-0.055759018494781175
02:31,-0.07828236586705732
02:31,-0.09247390587804431
02:31,-0.097784288591833
02:31,-0.0984251968503937
02:31,-0.09824208020509065
02:31,-0.09943233839956052
02:31,-0.10300311298297016
02:31,-0.10813037905145578
02:31,-0.11371543673319905
02:31,-0.12021607764145761
02:31,-0.12735762680827686
02:31,-0.13257645119941402
02:31,-0.1324848928767625
02:31,-0.1252517853872917
02:31,-0.11151803698956235
02:31,-0.09577000549349936
02:31,-0.0829518403222853
02:31,-0.07407068302508699
02:31,-0.06610510895440395
02:31,-0.05649148507599341
02:31,-0.045504486357809924
02:31,-0.03561618751144479
02:31,-0.02984801318439846
02:31,-0.02893242995788317
02:31,-0.03103827137886834
02:31,-0.03277787950924739
02:31,-0.027925288408716352
02:31,-0.010803882072880425
02:31,0.01492400659219923
02:31,0.03845449551364219
02:31,0.05411096868705365
02:31,0.06344991759750962
02:31,0.06775315876213148
02:31,0.06784471708478301
02:31,0.06665445889031313
02:31,0.06775315876213148
02:31,0.07278886650796558
02:31,0.08029664896539096
02:31,0.08688884819630105
02:31,0.09009338948910456
02:31,0.08963559787584692
02:31,0.08569859000183117
02:31,0.07928950741622413
02:31,0.07306354147592016
02:31,0.06958432521516206
02:31,0.06866874198864677
02:31,0.06848562534334371
02:31,0.0687603003112983
02:31,0.07077458340963194
02:31,0.07535249954220839
02:31,0.0785570408350119
02:31,0.07718366599523897
02:31,0.07489470792895074
02:31,0.07754989928584509
02:31,0.08469144845266435
02:31,0.09073429774766527
02:31,0.09247390587804431
02:31,0.08908624793993775
02:31,0.08121223219190625
02:31,0.07187328328145029
02:31,0.06546420069584326
02:31,0.0602453763047061
02:31,0.048251236037355795
02:31,0.025636330342428126
02:31,0.0
02:31,-0.018952572788866508
02:31,-0.03268632118659586
02:31,-0.050265519135689433
02:31,-0.0728804248306171
02:31,-0.09128364768357444
02:31,-0.09760117194652994
02:31,-0.09265702252334737
02:31,-0.08322651529023989
02:31,-0.07736678264054203
02:31,-0.07892327412561802
02:31,-0.0857901483244827
02:31,-0.0943050723310749
02:31,-0.10199597143380333
02:31,-0.1084966123420619
02:31,-0.11600439479948728
02:31,-0.12552646035524628
02:31,-0.1331258011353232
02:31,-0.13257645119941402
02:31,-0.12168101080388208
02:31,-0.10428492950009156
02:31,-0.08807910639077092
02:31,-0.07864859915766344
02:31,-0.07553561618751145
02:31,-0.07498626625160228
02:31,-0.07489470792895074
02:31,-0.07736678264054203
02:31,-0.08652261490569493
02:31,-0.10208752975645487
02:31,-0.11719465299395715
02:31,-0.12570957700054936
02:31,-0.12827321003479217
02:31,-0.12863944332539828
02:31,-0.12708295184032228
02:31,-0.12195568577183666
02:31,-0.1141732283464567
02:31,-0.10712323750228896
02:31,-0.10199597143380333
02:31,-0.09696026368796924
02:31,-0.09183299761948362
02:31,-0.09696026368796924
02:31,-0.1233290606116096
02:31,-0.15125434902032595
02:31,-0.13916865043032411
02:31,-0.07782457425379967
02:31,0.007324665812122322
02:31,0.0911920893609229
02:31,0.1523530488921443
02:31,0.17927119575169384
02:31,0.17460172129646584
02:31,0.1416407251419154
02:31,0.07928950741622413
02:31,-0.005218824391137154
02:31,-0.0879875480681194
02:31,-0.14759201611426478
02:31,-0.18064457059146677
02:31,-0.18604651162790697
02:31,-0.16324848928767624
02:31,-0.12552646035524628
02:31,-0.0886284563266801
02:31,-0.05337850210584142
02:31,-0.015656473173411463
02:31,0.018403222852957334
02:31,0.041659036806445705
02:31,0.0545687603003113
02:31,0.06326680095220656
02:31,0.07416224134773851
02:31,0.0879875480681194
02:31,0.0990661051089544
02:31,0.10419337117744003
02:31,0.10529207104925838
02:31,0.10520051272660685
02:31,0.10510895440395532
02:31,0.10510895440395532
02:31,0.10529207104925838
02:31,0.10510895440395532
02:31,0.10401025453213697
02:31,0.10162973814319722
02:31,0.09851675517304523
02:31,0.09448818897637795
02:31,0.08789598974546786
02:31,0.0779161325764512
02:31,0.06418238417872185
02:31,0.04678630287493133
02:31,0.029756454861746932
02:31,0.02060062259659403
02:31,0.022889580662882256
02:31,0.03360190441311115
02:31,0.045412928035158395
02:31,0.0523713605566746
02:31,0.05401941036440212
02:31,0.05337850210584142
02:31,0.0517304522981139
02:31,0.049258377586522614
02:31,0.04852591100531038
02:31,0.05621681010803882
02:31,0.07645119941402674
02:31,0.10199597143380333
02:31,0.12158945248123054
02:31,0.13431605932979307
02:31,0.1488738326313862
02:31,0.16736861380699505
02:31,0.18174327046328512
02:31,0.1889763779527559
02:31,0.1942867606665446
02:31,0.20170298480131843
02:31,0.21030946713056217
02:31,0.220838674235488
02:31,0.23823475553927853
02:31,0.26524446072147956
02:31,0.29417689067936276
02:31,0.3142281633400476
02:31,0.3242080205090643
02:31,0.33208203625709576
02:31,0.34490020142830985
02:31,0.3608313495696759
02:31,0.3725508148690716
02:31,0.37648782274308734
02:31,0.3757553561618751
02:31,0.3744735396447537
02:31,0.37438198132210215
02:31,0.3745650979674052
02:31,0.37310016480498076
02:31,0.36733199047793447
02:31,0.35497161691997803
02:31,0.339223585423915
02:31,0.3274125618018678
02:31,0.32246841237868523
02:31,0.32191906244277607
02:31,0.32219373741073065
02:31,0.3196301043764878
02:31,0.3099249221754257
02:31,0.2905145577733016
02:31,0.26506134407617654
02:31,0.2418970884453397
02:31,0.22312763230177624
02:31,0.2057315509979857
02:31,0.1876945614356345
02:31,0.1700238051638894
02:31,0.15482512360373557
02:31,0.1409998168833547
02:31,0.12342061893426112
02:31,0.10318622962827322
02:31,0.08936092290789233
02:31,0.08524079838857353
02:31,0.08276872367698224
02:31,0.0715986083134957
02:31,0.049166819263871085
02:31,0.019959714338033327
02:31,-0.00943050723310749
02:31,-0.035982420802050906
02:31,-0.0615271928218275
02:31,-0.0879875480681194
02:31,-0.11325764511994141
02:31,-0.13687969236403588
02:31,-0.1577549899285845
02:31,-0.17103094671305621
02:31,-0.1759750961362388
02:31,-0.179820545687603
02:31,-0.18925105292071048
02:31,-0.20261856802783373
02:31,-0.21287310016480498
02:31,-0.21809192455594215
02:31,-0.22248672404321554
02:31,-0.22862113166086798
02:31,-0.23393151437465665
02:31,-0.23457242263321737
02:31,-0.22825489837026186
02:31,-0.21662699139351768
02:31,-0.20591466764328878
02:31,-0.20051272660684857
02:31,-0.19978026002563634
02:31,-0.20005493499359092
02:31,-0.19859000183116646
02:31,-0.19694195202343892
02:31,-0.19895623512177257
02:31,-0.20618934261124336
02:31,-0.2132393334554111
02:31,-0.2123237502288958
02:31,-0.20289324299578831
02:31,-0.19263871085881706
02:31,-0.1889763779527559
02:31,-0.19456143563449918
02:31,-0.2040835011902582
02:31,-0.2084783006775316
02:31,-0.2079289507416224
02:31,-0.2069218091924556
02:31,-0.20417505951290973
02:31,-0.20133675151071231
02:31,-0.20042116828419704
02:31,-0.19575169382896906
02:31,-0.18687053653177074
02:31,-0.18256729536714889
02:31,-0.1870536531770738
02:31,-0.1933711774400293
02:31,-0.18888481963010437
02:31,-0.17048159677714705
02:31,-0.14960629921259844
02:31,-0.13678813404138437
02:31,-0.13294268449002014
02:31,-0.1337667093938839
02:31,-0.1355978758469145
02:31,-0.13697125068668742
02:31,-0.13834462552646035
02:31,-0.13999267533418788
02:31,-0.13889397546236953
02:31,-0.1296465848745651
02:31,-0.11115180369895623
02:31,-0.09064273942501373
02:31,-0.0766343160593298
02:31,-0.0696758835378136
02:31,-0.06573887566379784
02:31,-0.06335835927485808
02:31,-0.06198498443508515
02:31,-0.06015381798205457
02:31,-0.05722395165720564
02:31,-0.05411096868705365
02:31,-0.05072331074894708
02:31,-0.046328511261673685
02:31,-0.041018128547885
02:31,-0.03653177073796008
02:31,-0.03369346273576268
02:31,-0.03076359641091375
02:31,-0.02700970518220106
02:31,-0.02261490569492767
02:31,-0.01776231459439663
02:31,-0.013916865043032411
02:31,-0.011536348654092657
02:31,-0.008606482329243728
02:31,-0.0030214246475004577
02:31,0.005676616004394799
02:31,0.015290239882805347
02:31,0.021790880791063907
02:31,0.02426295550265519
02:31,0.025086980406518952
02:31,0.025727888665079655
02:31,0.024629188793261307
02:31,0.020783739241897088
02:31,0.015290239882805347
02:31,0.010437648782274309
02:31,0.0059512909723493865
02:31,-0.0004577916132576451
02:31,-0.008881157297198315
02:31,-0.017029848013184398
02:31,-0.02609412195568577
02:31,-0.038912287126899835
02:31,-0.05411096868705365
02:31,-0.06482329243728255
02:31,-0.0659219923091009
02:31,-0.06070316791796374
02:31,-0.059512909723493865
02:31,-0.06161875114447903
02:31,-0.04989928584508332
02:31,-0.01400842336568394
02:31,0.04120124519318806
02:31,0.10639077092107672
02:31,0.16178355612525178
02:31,0.1830250869804065
02:31,0.15473356528108406
02:31,0.07498626625160228
02:31,-0.036989562351217725
02:31,-0.14566929133858267
02:31,-0.22257828236586705
02:31,-0.2558139534883721
02:31,-0.24565097967405236
02:31,-0.20765427577366782
02:31,-0.16535433070866143
02:31,-0.13523164255630837
02:31,-0.12085698590001831
02:31,-0.1141732283464567
02:31,-0.10712323750228896
02:31,-0.09833363852774217
02:31,-0.0879875480681194
02:31,-0.07544405786485991
02:31,-0.06198498443508515
02:31,-0.050997985716901666
02:31,-0.04486357809924922
02:31,-0.04129280351583959
02:31,-0.035249954220838674
02:31,-0.025636330342428126
02:31,-0.01593114814136605
02:31,-0.009064273942501373
02:31,-0.0060428492950009155
02:31,-0.006866874198864677
02:31,-0.01117011536348654
02:31,-0.017579197949093572
02:31,-0.023622047244094488
02:31,-0.027925288408716352
02:31,-0.03103827137886834
02:31,-0.03360190441311115
02:31,-0.0347006042849295
02:31,-0.033327229445156564
02:31,-0.030672038088262223
02:31,-0.02810840505401941
02:31,-0.026002563633034242
02:31,-0.024079838857352133
02:31,-0.021973997436366965
02:31,-0.020417505951290972
02:31,-0.02234023072697308
02:31,-0.03076359641091375
02:31,-0.043581761582127815
02:31,-0.0545687603003113
02:31,-0.059512909723493865
02:31,-0.05914667643288775
02:31,-0.055759018494781175
02:31,-0.0495330525544772
02:31,-0.04046877861197583
02:31,-0.031404504669474455
02:31,-0.025727888665079655
02:31,-0.02234023072697308
02:31,-0.015473356528108405
02:31,-0.0016480498077275224
02:31,0.015198681560153818
02:31,0.0290239882805347
02:31,0.041659036806445705
02:31,0.05923823475553928
02:31,0.08057132393334554
02:31,0.0984251968503937
02:31,0.10895440395531954
02:31,0.11225050357077458
02:31,0.11252517853872918
02:31,0.11380699505585058
02:31,0.11600439479948728
02:31,0.11664530305804797
02:31,0.11591283647683574
02:31,0.11673686138069951
02:31,0.12012451931880608
02:31,0.12250503570774583
02:31,0.12058231093206373
02:31,0.1154550448635781
02:31,0.110419337117744
02:31,0.10556674601721297
02:31,0.09815052188243911
02:31,0.08853689800402857
02:31,0.07983885735213331
02:31,0.07297198315326864
02:31,0.06711225050357078
02:31,0.061435634499175974
02:31,0.055209668558872
02:31,0.048159677714704266
02:31,0.04120124519318806
02:31,0.033327229445156564
02:31,0.02243178904962461
02:31,0.008148690715986083
02:31,-0.008240249038637612
02:31,-0.023072697308185314
02:31,-0.03213697125068669
02:31,-0.03442592931697491
02:31,-0.029664896539095403
02:31,-0.01675517304522981
02:31,0.00027467496795458707
02:31,0.012268815235304889
02:31,0.01117011536348654
02:31,-0.003387657938106574
02:31,-0.023896722212049075
02:31,-0.03872917048159678
02:31,-0.043673319904779344
02:31,-0.04239150338765794
02:31,-0.038820728804248306
02:31,-0.034242812671671854
02:31,-0.029664896539095403
02:31,-0.026551913568943417
02:31,-0.025911005310382713
02:31,-0.02627723860098883
02:31,-0.025544772019776597
02:31,-0.024079838857352133
02:31,-0.023072697308185314
02:31,-0.02261490569492767
02:31,-0.02252334737227614
02:31,-0.02243178904962461
02:31,-0.02261490569492767
02:31,-0.023255813953488372
02:31,-0.023896722212049075
02:31,-0.022798022340230727
02:31,-0.017212964658487456
02:31,-0.005768174327046328
02:31,0.008240249038637612
02:31,0.019318806079472624
02:31,0.024079838857352133
02:31,0.024995422083867423
02:31,0.026551913568943417
02:31,0.031129829701519868
02:31,0.03927852041750595
02:31,0.053012268815235304
02:31,0.07114081670023806
02:31,0.08698040651895257
02:31,0.09302325581395349
02:31,0.08652261490569493
02:31,0.07306354147592016
02:31,0.062259659403039735
02:31,0.0580479765610694
02:31,0.05713239333455411
02:31,0.05713239333455411
02:31,0.058688884819630104
02:31,0.06290056766160045
02:31,0.06821095037538913
02:31,0.06949276689251054
02:31,0.06464017579197949
02:31,0.05914667643288775
02:31,0.06097784288591833
02:31,0.07205639992675335
02:31,0.08652261490569493
02:31,0.09641091375206007
02:31,0.09943233839956052
02:31,0.09924922175425746
02:31,0.099340780076909
02:31,0.10025636330342429
02:31,0.10098882988463652
02:31,0.10043947994872734
02:31,0.09677714704266618
02:31,0.08899468961728621
02:31,0.08020509064273942
02:31,0.07361289141182933
02:31,0.06949276689251054
02:31,0.06702069218091924
02:31,0.06583043398644937
02:31,0.06729536714887384
02:31,0.07242263321735946
02:31,0.07681743270463286
02:31,0.07782457425379967
02:31,0.07745834096319355
02:31,0.07700054934993592
02:31,0.07690899102728438
02:31,0.07938106573887567
02:31,0.08560703167917964
02:31,0.09375572239516572
02:31,0.10108038820728804
02:31,0.10712323750228896
02:31,0.1126167368613807
02:31,0.11572971983153268
02:31,0.11426478666910822
02:31,0.10950375389122871
02:31,0.10593297930781909
02:31,0.10675700421168284
02:31,0.10996154550448636
02:31,0.11298297015198681
02:31,0.11572971983153268
02:31,0.11811023622047244
02:31,0.11884270280168467
02:31,0.11554660318622963
02:31,0.10538362937190991
02:31,0.08807910639077092
02:31,0.06537264237319172
02:31,0.04028566196667277
02:31,0.01794543123969969
02:31,0.004028566196667277
02:31,-0.0022889580662882256
02:31,-0.007416224134773851
02:31,-0.017487639626442043
02:31,-0.03387657938106574
02:31,-0.05264603552462919
02:31,-0.07013367515107123
02:31,-0.08661417322834646
02:31,-0.10227064640175793
02:31,-0.11316608679728987
02:31,-0.11087712873100165
02:31,-0.08688884819630105
02:31,-0.05182201062076543
02:31,-0.03543307086614173
02:31,-0.050173960813037904
02:31,-0.07938106573887567
02:31,-0.09787584691448453
02:31,-0.08157846548251237
02:31,-0.024720747115912836
02:31,0.042757736678264054
02:31,0.08441677348470976
02:31,0.08441677348470976
02:31,0.038820728804248306
02:31,-0.04284929500091558
02:31,-0.13413294268449003
02:31,-0.21616919978026003
02:31,-0.28538729170481597
02:31,-0.33418787767808095
02:31,-0.35579564182384177
02:31,-0.35790148324482696
02:31,-0.3467313678813404
02:31,-0.3227430873466398
02:31,-0.29545870719648415
02:31,-0.2744002929866325
02:31,-0.2593847280717817
02:31,-0.2502288958066288
02:31,-0.2472990294817799
02:31,-0.24739058780443143
02:31,-0.24647500457791613
02:31,-0.24308734663980955
02:31,-0.2353048892144296
02:31,-0.2191906244277605
02:31,-0.19639260208752976
02:31,-0.17560886284563268
02:31,-0.1630653726423732
02:31,-0.15748031496062992
02:31,-0.15665629005676615
02:31,-0.16004394799487273
02:31,-0.16480498077275224
02:31,-0.16773484709760117
02:31,-0.16855887200146494
02:31,-0.16874198864676798
02:31,-0.16892510529207105
02:31,-0.1690166636147226
02:31,-0.16855887200146494
02:31,-0.16736861380699505
02:31,-0.16599523896722213
02:31,-0.16425563083684308
02:31,-0.16169199780260027
02:31,-0.15619849844350853
02:31,-0.14438747482146128
02:31,-0.1258011353232009
02:31,-0.10547518769456143
02:31,-0.08752975645486175
02:31,-0.0728804248306171
02:31,-0.06189342611243362
02:31,-0.053927852041750594
02:31,-0.048251236037355795
02:31,-0.045412928035158395
02:31,-0.04422266984068852
02:31,-0.0432155282915217
02:31,-0.041750595129097234
02:31,-0.039003845449551364
02:31,-0.0347006042849295
02:31,-0.02810840505401941
02:31,-0.018311664530305805
02:31,-0.005768174327046328
02:31,0.006500640908258561
02:31,0.017212964658487456
02:31,0.02636879692364036
02:31,0.029298663248489287
02:31,0.021882439113715436
02:31,0.010620765427577367
02:31,0.008698040651895257
02:31,0.026551913568943417
02:31,0.06427394250137337
02:31,0.10675700421168284
02:31,0.13541475920161142
02:31,0.1466764328877495
02:31,0.1495147408899469
02:31,0.15226149056949276
02:31,0.15638161508881157
02:31,0.15976927302691815
02:31,0.16105108954403954
02:31,0.16114264786669108
02:31,0.16095953122138804
02:31,0.16059329793078192
02:31,0.16013550631752427
02:31,0.16050173960813038
02:31,0.16324848928767624
02:31,0.16929133858267717
02:31,0.17679912104010254
02:31,0.18220106207654277
02:31,0.18476469511078558
02:31,0.18668741988646767
02:31,0.19007507782457425
02:31,0.19538546053836295
02:31,0.2009705182201062
02:31,0.20499908441677347
02:31,0.20966855887200148
02:31,0.2217542574620033
02:31,0.2440944881889764
02:31,0.26826588536898005
02:31,0.28245742537996704
02:31,0.28346456692913385
02:31,0.27705548434352684
02:31,0.27055484343526826
02:31,0.26826588536898005
02:31,0.2687236769822377
02:31,0.2681743270463285
02:31,0.2659769273026918
02:31,0.26414576084966124
02:31,0.2643288774949643
02:31,0.26542757736678263
02:31,0.2657022523347372
02:31,0.26414576084966124
02:31,0.2611243362021608
02:31,0.25663797839223584
02:31,0.24977110419337117
02:31,0.23905878044314227
02:31,0.22578282365867058
02:31,0.21287310016480498
02:31,0.20179454312396997
02:31,0.19364585240798388
02:31,0.18970884453396814
02:31,0.19007507782457425
02:31,0.19291338582677164
02:31,0.19611792711957518
02:31,0.1968503937007874
02:31,0.1895257278886651
02:31,0.16892510529207105
02:31,0.13953488372093023
02:31,0.11591283647683574
02:31,0.10730635414759201
02:31,0.11060245376304706
02:31,0.11774400292986632
02:31,0.12342061893426112
02:31,0.12653360190441312
02:31,0.1274491851309284
02:31,0.12268815235304889
02:31,0.10703167917963743
02:31,0.08194469877311848
02:31,0.055209668558872
02:31,0.0325032045412928
02:31,0.015107123237502289
02:31,0.0030214246475004577
02:31,-0.007324665812122322
02:31,-0.022065555759018494
02:31,-0.04019410364402124
02:31,-0.05401941036440212
02:31,-0.060336934627357626
02:31,-0.0630836843069035
02:31,-0.06729536714887384
02:31,-0.07581029115546603
02:31,-0.08881157297198315
02:31,-0.10327778795092474
02:31,-0.11563816150888116
02:31,-0.12488555209668559
02:31,-0.13303424281267168
02:31,-0.1420069584325215
02:31,-0.1523530488921443
02:31,-0.16123420618934262
02:31,-0.1643471891594946
02:31,-0.16233290606116096
02:31,-0.16324848928767624
02:31,-0.1712140633583593
02:31,-0.1823841787218458
02:31,-0.19327961911737776
02:31,-0.20335103460904597
02:31,-0.21095037538912287
02:31,-0.2148873832631386
02:31,-0.21653543307086615
02:31,-0.21754257462003296
02:31,-0.21836659952389673
02:31,-0.21900750778245742
02:31,-0.21973997436366965
02:31,-0.220838674235488
02:31,-0.22331074894707928
02:31,-0.2267899652078374
02:31,-0.22862113166086798
02:31,-0.2284380150155649
02:31,-0.23008606482329244
02:31,-0.23356528108405053
02:31,-0.2353964475370811
02:31,-0.23557956418238418
02:31,-0.23731917231276323
02:31,-0.24363669657571874
02:31,-0.25306720380882625
02:31,-0.26039186962094857
02:31,-0.2633217359457975
02:31,-0.2633217359457975
02:31,-0.26304706097784286
02:31,-0.2633217359457975
02:31,-0.2644204358176158
02:31,-0.26854056033693463
02:31,-0.2785204175059513
02:31,-0.2924372825489837
02:31,-0.304431422816334
02:31,-0.31248855520966856
02:31,-0.32027101263504854
02:31,-0.331258011353232
02:31,-0.3458157846548251
02:31,-0.3597326496978575
02:31,-0.3683391320271013
02:31,-0.3713605566746017
02:31,-0.37328328145028383
02:31,-0.3811572971983153
02:31,-0.3993774034059696
02:31,-0.42263321735945797
02:31,-0.44112799853506685
02:31,-0.45293902215711407
02:31,-0.4644753708112067
02:31,-0.47775132759567845
02:31,-0.4829701519868156
02:31,-0.46520783739241894
02:31,-0.42290789232741255
02:31,-0.37099432338399563
02:31,-0.3264969785753525
02:31,-0.3010437648782274
02:31,-0.29866324848928766
02:31,-0.3129463468229262
02:31,-0.33592748580846
02:31,-0.3719099066105109
02:31,-0.42693645852407985
02:31,-0.49386559238234756
02:31,-0.5633583592748581
02:31,-0.6255264603552463
02:31,-0.6560153817982055
02:31,-0.638619300494415
02:31,-0.5954037722028932
02:31,-0.5555759018494781
02:31,-0.5241713971800037
02:31,-0.5025636330342428
02:31,-0.49542208386742353
02:31,-0.49835195019227246
02:31,-0.5038454495513642
02:31,-0.5084233656839406
02:31,-0.5108954403955319
02:31,-0.5112616736861381
02:31,-0.5092473905878044
02:31,-0.5014649331624245
02:31,-0.4819630104376488
02:31,-0.44991759750961363
02:31,-0.41430140999816883
02:31,-0.38280534700604285
02:31,-0.34911188427028017
02:31,-0.30205090642739424
02:31,-0.23860098882988465
02:31,-0.16334004761032778
02:31,-0.0842336568394067
02:31,-0.013367515107123237
02:31,0.039827870353415125
02:31,0.07736678264054203
02:31,0.10584142098516755
02:31,0.12772386009888298
02:31,0.14466214978941586
02:31,0.16169199780260027
02:31,0.18348287859366416
02:31,0.21021790880791064
02:31,0.23676982237685407
02:31,0.25883537813587254
02:31,0.2800769089910273
02:31,0.30617103094671305
02:31,0.3368430690349753
02:31,0.36989562351217725
02:31,0.40651895257278886
02:31,0.44845266434718917
02:31,0.49478117560886287
02:31,0.5387291704815967
02:31,0.5713239333455411
02:31,0.5911920893609229
02:31,0.6030031129829702
02:31,0.6098699871818348
02:31,0.6124336202160776
02:31,0.6121589452481231
02:31,0.6131660867972899
02:31,0.6210401025453214
02:31,0.6379783922358543
02:31,0.6588536898004028
02:31,0.6746017212964659
02:31,0.6811939205273759
02:31,0.6817432704632851
02:31,0.6808276872367698
02:31,0.6804614539461638
02:31,0.6796374290423
02:31,0.6769822376854056
02:31,0.6731367881340414
02:31,0.6701153634865409
02:31,0.6685588720014649
02:31,0.6644387474821462
02:31,0.6485075993407801
02:31,0.6149056949276689
02:31,0.5728804248306171
02:31,0.536348654092657
02:31,0.5023805163889398
02:31,0.45916498809741807
02:31,0.4112799853506684
02:31,0.3760300311298297
02:31,0.35817615821278154
02:31,0.34618201794543124
02:31,0.32814502838308
02:31,0.3001281816517121
02:31,0.2668925105292071
02:31,0.23741073063541476
02:31,0.21561984984435084
02:31,0.19767441860465115
02:31,0.17753158762131477
02:31,0.15473356528108406
02:31,0.13459073429774768
02:31,0.12140633583592748
02:31,0.11408167002380516
02:31,0.10941219556857719
02:31,0.1028199963376671
02:31,0.08716352316425563
02:31,0.05969602636879692
02:31,0.030214246475004577
02:31,0.011444790331441128
02:31,0.004211682841970335
02:31,-0.0007324665812122322
02:31,-0.009247390587804431
02:31,-0.01693828969053287
02:31,-0.01693828969053287
02:31,-0.01217725691265336
02:31,-0.011444790331441128
02:31,-0.019227247756821095
02:31,-0.0325032045412928
02:31,-0.04413111151803699
02:31,-0.04898370261856803
02:31,-0.04660318622962827
02:31,-0.04056033693462736
02:31,-0.03360190441311115
02:31,-0.0261856802783373
02:31,-0.019501922724775682
02:31,-0.015107123237502289
02:31,-0.013825306720380882
02:31,-0.016572056399926753
02:31,-0.02261490569492767
02:31,-0.028474638344625526
02:31,-0.03552462918879326
02:31,-0.048342794360007324
02:31,-0.06436550082402491
02:31,-0.07269730818531404
02:31,-0.06637978392235855
02:31,-0.04843435268265885
02:31,-0.025727888665079655
02:31,-0.003570774583409632
02:31,0.011811023622047244
02:31,0.015198681560153818
02:31,0.00943050723310749
02:31,0.0031129829701519868
02:31,0.0016480498077275224
02:31,0.005493499359091741
02:31,0.011811023622047244
02:31,0.019227247756821095
02:31,0.02911554660318623
02:31,0.04147592016114265
02:31,0.05319538546053836
02:31,0.06290056766160045
02:31,0.07123237502288958
02:31,0.07837392418970884
02:31,0.08652261490569493
02:31,0.09970701336751511
02:31,0.11893426112433621
02:31,0.13926020875297565
02:31,0.15354330708661418
02:31,0.15812122321919062
02:31,0.15445889031312945
02:31,0.14685954953305255
02:31,0.14017579197949093
02:31,0.1381615088811573
02:31,0.14182384178721846
02:31,0.1485991576634316
02:31,0.15509979857169018
02:31,0.1615088811572972
02:31,0.16984068851858633
02:31,0.18247573704449735
02:31,0.20261856802783373
02:31,0.22862113166086798
02:31,0.25086980406518955
02:31,0.266526277238601
02:31,0.2810840505401941
02:31,0.29316974913019594
02:31,0.2961911737776964
02:31,0.2872184581578465
02:31,0.26725874381981324
02:31,0.24372825489837027
02:31,0.22733931514374656
02:31,0.22157114081670023
02:31,0.2214795824940487
02:31,0.22230360739791247
02:31,0.22248672404321554
02:31,0.22212049075260942
02:31,0.2201977659769273
02:31,0.2158029664896539
02:31,0.2122321919062443
02:31,0.2132393334554111
02:31,0.2167185497161692
02:31,0.21900750778245742
02:31,0.2191906244277605
02:31,0.2169932246841238
02:31,0.21360556674601722
02:31,0.21058414209851675
02:31,0.20774583409631936
02:31,0.20463285112616736
02:31,0.2025270097051822
02:31,0.20545687603003113
02:31,0.2170847830067753
02:31,0.2353964475370811
02:31,0.25407434535799306
02:31,0.2707379600805713
02:31,0.2854788500274675
02:31,0.2946346822926204
02:31,0.29225416590368064
02:31,0.27522431789049623
02:31,0.24913019593481048
02:31,0.22688152353048893
02:31,0.21561984984435084
02:31,0.21250686687419887
02:31,0.21305621681010803
02:31,0.2158029664896539
02:31,0.21973997436366965
02:31,0.22221204907526093
02:31,0.2198315326863212
02:31,0.21250686687419887
02:31,0.2056399926753342
02:31,0.20261856802783373
02:31,0.2008789598974547
02:31,0.1952939022157114
02:31,0.18339132027101263
02:31,0.17295367148873833
02:31,0.17835561252517854
02:31,0.205090642739425
02:31,0.2422633217359458
02:31,0.27494964292254165
02:31,0.29536714887383264
02:31,0.30076908991027285
02:31,0.28557040835011904
02:31,0.24308734663980955
02:31,0.17643288774949642
02:31,0.10382713788683391
02:31,0.046328511261673685
02:31,0.011902581944698773
02:31,-0.004303241164621864
02:31,-0.00943050723310749
02:31,-0.007782457425379967
02:31,-0.0015564914850759934
02:31,0.007049990844167735
02:31,0.015656473173411463
02:31,0.021790880791063907
02:31,0.02435451382530672
02:31,0.02353048892144296
02:31,0.019410364402124153
02:31,0.011078557040835012
02:31,-0.0022889580662882256
02:31,-0.019410364402124153
02:31,-0.036898004028566196
02:31,-0.04779344442409815
02:31,-0.04678630287493133
02:31,-0.04147592016114265
02:31,-0.05557590184947812
02:31,-0.10263687969236404
02:31,-0.16819263871085882
02:31,-0.23237502288958067
02:31,-0.28145028383080023
02:31,-0.3047976561069401
02:31,-0.30589635597875847
02:31,-0.30140999816883357
02:31,-0.31367881340413845
02:31,-0.3576268082768724
02:31,-0.4186046511627907
02:31,-0.46227797106757
02:31,-0.46713056216810106
02:31,-0.43893059879143015
02:31,-0.40679362754074344
02:31,-0.40139168650430324
02:31,-0.41942867606665446
02:31,-0.42409815052188243
02:31,-0.39919428676066654
02:31,-0.3662332906061161
02:31,-0.3456326680095221
02:31,-0.3362937190990661
02:31,-0.329518403222853
02:31,-0.3206372459256546
02:31,-0.30736128914118294
02:31,-0.28538729170481597
02:31,-0.2561801867789782
02:31,-0.2293535982420802
02:31,-0.20701336751510713
02:31,-0.1820179454312397
02:31,-0.15464200695843253
02:31,-0.13459073429774768
02:31,-0.12406152719282183
02:31,-0.11362387841054752
02:31,-0.0955868888481963
02:31,-0.07306354147592016
02:31,-0.054751876945614356
02:31,-0.04413111151803699
02:31,-0.03964475370811207
02:31,-0.041659036806445705
02:31,-0.0517304522981139
02:31,-0.0672038088262223
02:31,-0.08084599890130013
02:31,-0.08963559787584692
02:31,-0.0958615638161509
02:31,-0.10162973814319722
02:31,-0.1084966123420619
02:31,-0.11627906976744186
02:31,-0.1220472440944882
02:31,-0.1233290606116096
02:31,-0.1220472440944882
02:31,-0.12433620216077641
02:31,-0.13605566746017214
02:31,-0.15720563999267534
02:31,-0.18064457059146677
02:31,-0.19886467679912104
02:31,-0.2100347921626076
02:31,-0.2182750412012452
02:31,-0.22852957333821644
02:31,-0.2425379967039004
02:31,-0.2569126533601904
02:31,-0.26698406885185866
02:31,-0.27147042666178356
02:31,-0.27238600988829886
02:31,-0.2720197765976927
02:31,-0.27156198498443507
02:31,-0.2722944515656473
02:31,-0.2756821095037539
02:31,-0.2820911920893609
02:31,-0.29133858267716534
02:31,-0.30278337300860647
02:31,-0.3152353048892144
02:31,-0.32777879509247393
02:31,-0.3402307269730819
02:31,-0.3507599340780077
02:31,-0.35506317524262954
02:31,-0.34929500091558324
02:31,-0.3336385277421718
02:31,-0.31248855520966856
02:31,-0.2895989745467863
02:31,-0.26698406885185866
02:31,-0.247665262772386
02:31,-0.23429774766526276
02:31,-0.2277971067570042
02:31,-0.2284380150155649
02:31,-0.23402307269730818
02:31,-0.2413477385094305
02:31,-0.24977110419337117
02:31,-0.2589269364585241
02:31,-0.2656106940120857
02:31,-0.2656106940120857
02:31,-0.2561801867789782
02:31,-0.24061527192821827
02:31,-0.23036073979124702
02:31,-0.23173411463101995
02:31,-0.23777696392602088
02:31,-0.2418970884453397
02:31,-0.24427760483427943
02:31,-0.24272111334920343
02:31,-0.23136788134041383
02:31,-0.20811206738692548
02:31,-0.17972898736495146
02:31,-0.1583043398644937
02:31,-0.14914850759934078
02:31,-0.14649331624244644
02:31,-0.1442043581761582
02:31,-0.14219007507782458
02:31,-0.14246475004577916
02:31,-0.14392968320820362
02:31,-0.14502838308002197
02:31,-0.14704266617835562
02:31,-0.15226149056949276
02:31,-0.15940303973631204
02:31,-0.1647134224501007
02:31,-0.16663614722578282
02:31,-0.16608679728987366
02:31,-0.16443874748214612
02:31,-0.16288225599707012
02:31,-0.1643471891594946
02:31,-0.17203808826222303
02:31,-0.18412378685222486
02:31,-0.19327961911737776
02:31,-0.19355429408533237
02:31,-0.18339132027101263
02:31,-0.16654458890313129
02:31,-0.15162058231093206
02:31,-0.14466214978941586
02:31,-0.14557773301593116
02:31,-0.14988097418055302
02:31,-0.15290239882805348
02:31,-0.15253616553744737
02:31,-0.1505218824391137
02:31,-0.14905694927668925
02:31,-0.14722578282365867
02:31,-0.1431972166269914
02:31,-0.137245925654642
02:31,-0.13202710126350486
02:31,-0.12937190990661052
02:31,-0.12827321003479217
02:31,-0.12699139351767075
02:31,-0.1252517853872917
02:31,-0.12442776048342795
02:31,-0.12506866874198866
02:31,-0.12671671854971617
02:31,-0.1280900933894891
02:31,-0.12918879326130744
02:31,-0.13092840139168652
02:31,-0.13294268449002014
02:31,-0.1327595678447171
02:31,-0.12726606848562536
02:31,-0.11792711957516938
02:31,-0.11023622047244094
02:31,-0.10785570408350119
02:31,-0.1091375206006226
02:31,-0.11023622047244094
02:31,-0.10666544588903132
02:31,-0.09457974729902949
02:31,-0.07434535799304157
02:31,-0.051089544039553195
02:31,-0.02993957150704999
02:31,-0.011811023622047244
02:31,0.005127266068485625
02:31,0.02243178904962461
02:31,0.04019410364402124
02:31,0.055759018494781175
02:31,0.0652810840505402
02:31,0.06738692547152536
02:31,0.06491485075993408
02:31,0.06381615088811574
02:31,0.06674601721296466
02:31,0.07169016663614723
02:31,0.07773301593114815
02:31,0.0877128731001648
02:31,0.10373557956418239
02:31,0.12314594396630654
02:31,0.14054202527009704
02:31,0.1539095403772203
02:31,0.16599523896722213
02:31,0.17972898736495146
02:31,0.18925105292071048
02:31,0.1823841787218458
02:31,0.15885368980040285
02:31,0.1371543673319905
02:31,0.13687969236403588
02:31,0.16874198864676798
02:31,0.23649514740889946
02:31,0.3268632118659586
02:31,0.4135689434169566
02:31,0.4738143197216627
02:31,0.48470976011719463
02:31,0.4311481413660502
02:31,0.3284197033510346
02:31,0.21122505035707745
02:31,0.11051089544039554
02:31,0.0488921442959165
02:31,0.03177073796008057
02:31,0.041567478483794176
02:31,0.055850576817432704
02:31,0.06573887566379784
02:31,0.07471159128364768
02:31,0.08899468961728621
02:31,0.11106024537630471
02:31,0.13889397546236953
02:31,0.16828419703351036
02:31,0.1918146859549533
02:31,0.20325947628639443
02:31,0.20362570957700055
02:31,0.19886467679912104
02:31,0.19364585240798388
02:31,0.18980040285661967
02:31,0.18760300311298297
02:31,0.18659586156381616
02:31,0.1864127449185131
02:31,0.18659586156381616
02:31,0.18714521149972532
02:31,0.18778611975828602
02:31,0.1870536531770738
02:31,0.18412378685222486
02:31,0.18018677897820912
02:31,0.1776231459439663
02:31,0.17689067936275407
02:31,0.17515107123237503
02:31,0.17029848013184398
02:31,0.16407251419154
02:31,0.1602270646401758
02:31,0.15940303973631204
02:31,0.15967771470426662
02:31,0.15949459805896357
02:31,0.15921992309100896
02:31,0.15921992309100896
02:31,0.1586705731550998
02:31,0.15748031496062992
02:31,0.1564731734114631
02:31,0.15629005676616003
02:31,0.156106940120857
02:31,0.15445889031312945
02:31,0.14969785753524995
02:31,0.13999267533418788
02:31,0.1258926936458524
02:31,0.11252517853872918
02:31,0.10831349569675884
02:31,0.11691997802600257
02:31,0.1340413843618385
02:31,0.15134590734297748
02:31,0.1634316059329793
02:31,0.1706647134224501
02:31,0.1766160043947995
02:31,0.182933528657755
02:31,0.1867789782091192
02:31,0.1852224867240432
02:31,0.17991210401025454
02:31,0.17643288774949642
02:31,0.1788134041384362
02:31,0.18632118659586155
02:31,0.19355429408533237
02:31,0.19675883537813588
02:31,0.195568577183666
02:31,0.1920893609229079
02:31,0.18915949459805897
02:31,0.1879692364035891
02:31,0.1870536531770738
02:31,0.18467313678813405
02:31,0.18018677897820912
02:31,0.17460172129646584
02:31,0.16810108038820729
02:31,0.15784654825123604
02:31,0.1416407251419154
02:31,0.1211316608679729
02:31,0.09851675517304523
02:31,0.07754989928584509
02:31,0.06363303424281268
02:31,0.05832265152902399
02:31,0.058597326496978575
02:31,0.061252517853872916
02:31,0.06390770921076726
02:31,0.0637245925654642
02:31,0.05832265152902399
02:31,0.048159677714704266
02:31,0.03744735396447537
02:31,0.03094671305621681
02:31,0.02893242995788317
02:31,0.029207104925837758
02:31,0.03167917963742904
02:31,0.0375389122871269
02:31,0.04522981138985534
02:31,0.049258377586522614
02:31,0.04495513642190075
02:31,0.033327229445156564
02:31,0.019868156015381798
02:31,0.009522065555759018
02:31,0.004303241164621864
02:31,0.003479216260758103
02:31,0.004211682841970335
02:31,0.003845449551364219
02:31,0.0010071415491668192
02:31,-0.0031129829701519868
02:31,-0.00659219923091009
02:31,-0.008698040651895257
02:31,-0.009064273942501373
02:31,-0.005218824391137154
02:31,0.005218824391137154
02:31,0.019501922724775682
02:31,0.03012268815235305
02:31,0.03460904596227797
02:31,0.03726423731917231
02:31,0.04229994506500641
02:31,0.0495330525544772
02:31,0.05621681010803882
02:31,0.0608862845632668
02:31,0.06354147592016114
02:31,0.06427394250137337
02:31,0.06180186778978209
02:31,0.05218824391137154
02:31,0.03552462918879326
02:31,0.02060062259659403
02:31,0.01400842336568394
02:31,0.014832448269547702
02:31,0.01977659769273027
02:31,0.0261856802783373
02:31,0.031312946346822926
02:31,0.034151254349020325
02:31,0.03579930415674785
02:31,0.03735579564182384
02:31,0.03955319538546054
02:31,0.042666178355612525
02:31,0.04715253616553745
02:31,0.05264603552462919
02:31,0.05722395165720564
02:31,0.05466031862296283
02:31,0.03909540377220289
02:31,0.015564914850759934
02:31,-0.005310382713788683
02:31,-0.02142464750045779
02:31,-0.03451748763962644
02:31,-0.047244094488188976
02:31,-0.0608862845632668
02:31,-0.070957700054935
02:31,-0.07342977476652628
02:31,-0.07123237502288958
02:31,-0.06921809192455594
02:31,-0.0706830250869804
02:31,-0.07819080754440579
02:31,-0.09357260574986266
02:31,-0.11399011170115364
02:31,-0.13175242629555026
02:31,-0.14109137520600623
02:31,-0.1429225416590368
02:31,-0.14127449185130928
02:31,-0.13898553378502107
02:31,-0.13770371726789965
02:31,-0.14026735030214246
02:31,-0.14676799121040102
02:31,-0.15070499908441679
02:31,-0.1469511078557041
02:31,-0.1397180003662333
02:31,-0.13550631752426295
02:31,-0.1353232008789599
02:31,-0.13651345907342977
02:31,-0.13568943416956603
02:31,-0.13266800952206556
02:31,-0.1305621681010804
02:31,-0.1315693096502472
02:31,-0.1366050173960813
02:31,-0.14557773301593116
02:31,-0.15601538179820545
02:31,-0.16736861380699505
02:31,-0.17844717084783007
02:31,-0.18210950375389123
02:31,-0.17734847097601172
02:31,-0.17203808826222303
02:31,-0.16974913019593482
02:31,-0.16855887200146494
02:31,-0.1693828969053287
02:31,-0.17689067936275407
02:31,-0.19071598608313495
02:31,-0.1981322102179088
02:31,-0.18632118659586155
02:31,-0.152993957150705
02:31,-0.097784288591833
02:31,-0.02719282182750412
02:31,0.03671488738326314
02:31,0.07388756637978393
02:31,0.07553561618751145
02:31,0.04010254532136971
02:31,-0.027833730086064823
02:31,-0.11756088628456327
02:31,-0.21378868339132026
02:31,-0.3053470060428493
02:31,-0.38408716352316424
02:31,-0.4331624244643838
02:31,-0.43810657388756635
02:31,-0.40322285295733384
02:31,-0.34718915949459805
02:31,-0.294909357260575
02:31,-0.26396264420435817
02:31,-0.25114447903314413
02:31,-0.24345357993041566
02:31,-0.23585423915033876
02:31,-0.23127632301776233
02:31,-0.2305438564365501
02:31,-0.22770554843435267
02:31,-0.220838674235488
02:31,-0.21561984984435084
02:31,-0.21351400842336568
02:31,-0.21113349203442594
02:31,-0.20774583409631936
02:31,-0.20426661783556124
02:31,-0.19978026002563634
02:31,-0.19382896905328695
02:31,-0.1873283281450284
02:31,-0.1823841787218458
02:31,-0.18009522065555758
02:31,-0.18027833730086065
02:31,-0.17963742904229996
02:31,-0.17277055484343526
02:31,-0.1564731734114631
02:31,-0.13614722578282365
02:31,-0.12268815235304889
02:31,-0.11884270280168467
02:31,-0.11939205273759385
02:31,-0.12058231093206373
02:31,-0.12094854422266985
02:31,-0.11563816150888116
02:31,-0.10016480498077275
02:31,-0.07928950741622413
02:31,-0.06409082585607032
02:31,-0.05832265152902399
02:31,-0.056674601721296465
02:31,-0.053927852041750594
02:31,-0.048159677714704266
02:31,-0.03918696209485442
02:31,-0.02819996337667094
02:31,-0.01785387291704816
02:31,-0.009979857169016663
02:31,-0.0060428492950009155
02:31,-0.003204541292803516
02:31,0.0061344076176524445
02:31,0.028291521699322468
02:31,0.05997070133675151
02:31,0.08908624793993775
02:31,0.10730635414759201
02:31,0.11682841970335103
02:31,0.1239699688701703
02:31,0.1300128181651712
02:31,0.13266800952206556
02:31,0.13092840139168652
02:31,0.12699139351767075
02:31,0.12342061893426112
02:31,0.12076542757736679
02:31,0.11875114447903315
02:31,0.11728621131660869
02:31,0.1163706280900934
02:31,0.11591283647683574
02:31,0.11527192821827505
02:31,0.11307452847463835
02:31,0.10721479582494049
02:31,0.0958615638161509
02:31,0.07974729902948179
02:31,0.0630836843069035
02:31,0.05255447720197766
02:31,0.05127266068485625
02:31,0.05795641823841787
02:31,0.06811939205273759
02:31,0.07599340780076909
02:31,0.07919794909357261
02:31,0.0788317158029665
02:31,0.07672587438198132
02:31,0.07498626625160228
02:31,0.0750778245742538
02:31,0.07608496612342062
02:31,0.07690899102728438
02:31,0.07700054934993592
02:31,0.07681743270463286
02:31,0.07690899102728438
02:31,0.07800769089910273
02:31,0.08020509064273942
02:31,0.08121223219190625
02:31,0.07809924922175426
02:31,0.07040835011902583
02:31,0.061435634499175974
02:31,0.05557590184947812
02:31,0.053744735396447536
02:31,0.053836293719099065
02:31,0.05411096868705365
02:31,0.053744735396447536
02:31,0.051913568943416956
02:31,0.04861746932796191
02:31,0.04513825306720381
02:31,0.04294085332356711
02:31,0.043673319904779344
02:31,0.04806811939205274
02:31,0.0545687603003113
02:31,0.062442776048342793
02:31,0.07352133308917781
02:31,0.08505768174327047
02:31,0.09293169749130196
02:31,0.09915766343160594
02:31,0.10803882072880425
02:31,0.11893426112433621
02:31,0.12726606848562536
02:31,0.1315693096502472
02:31,0.13431605932979307
02:31,0.13687969236403588
02:31,0.13861930049441495
02:31,0.13953488372093023
02:31,0.13990111701153635
02:31,0.1394433253982787
02:31,0.13788683391320272
02:31,0.1350485259110053
02:31,0.1315693096502472
02:31,0.12882255997070133
02:31,0.12726606848562536
02:31,0.12635048525911005
02:31,0.12534334370994324
02:31,0.12369529390221572
02:31,0.1220472440944882
02:31,0.12085698590001831
02:31,0.11994140267350302
02:31,0.11865958615638161
02:31,0.11737776963926021
02:31,0.11719465299395715
02:31,0.12149789415857902
02:31,0.13367515107123237
02:31,0.15033876579381067
02:31,0.16114264786669108
02:31,0.16068485625343343
02:31,0.15500824024903864
02:31,0.1495147408899469
02:31,0.14273942501373374
02:31,0.13166086797289875
02:31,0.11682841970335103
02:31,0.10217908807910639
02:31,0.09357260574986266
02:31,0.09769273026918147
02:31,0.1176524446072148
02:31,0.14594396630653728
02:31,0.16764328877494963
02:31,0.1760666544588903
02:31,0.17835561252517854
02:31,0.18311664530305805
02:31,0.19135689434169567
02:31,0.20042116828419704
02:31,0.21095037538912287
02:31,0.22157114081670023
02:31,0.22514191540010986
02:31,0.21873283281450284
02:31,0.2084783006775316
02:31,0.20060428492950008
02:31,0.1968503937007874
02:31,0.19630104376487822
02:31,0.1965757187328328
02:31,0.19639260208752976
02:31,0.19465299395715072
02:31,0.19199780260025637
02:31,0.19099066105108956
02:31,0.19318806079472625
02:31,0.19694195202343892
02:31,0.19959714338033327
02:31,0.19794909357260576
02:31,0.19144845266434718
02:31,0.1851309284013917
02:31,0.1826588536898004
02:31,0.1830250869804065
02:31,0.18384911188427028
02:31,0.1839406702069218
02:31,0.1852224867240432
02:31,0.1911737776963926
02:31,0.19996337667093939
02:31,0.20490752609412197
02:31,0.20444973448086431
02:31,0.20271012635048527
02:31,0.20325947628639443
02:31,0.20655557590184948
02:31,0.2106757004211683
02:31,0.21351400842336568
02:31,0.2145211499725325
02:31,0.21250686687419887
02:31,0.20527375938472808
02:31,0.19099066105108956
02:31,0.16828419703351036
02:31,0.14969785753524995
02:31,0.1555575901849478
02:31,0.1842153451748764
02:31,0.22257828236586705
02:31,0.268082768723677
02:31,0.3142281633400476
02:31,0.34929500091558324
02:31,0.37099432338399563
02:31,0.37630470609778427
02:31,0.3486540926570225
02:31,0.27705548434352684
02:31,0.1781724958798755
02:31,0.08340963193554295
02:31,0.012909723493865592
02:31,-0.0233473722761399
02:31,-0.022065555759018494
02:31,0.007690899102728438
02:31,0.05044863578099249
02:31,0.0933894891045596
02:31,0.12470243545138253
02:31,0.13578099249221753
02:31,0.13193554294085333
02:31,0.12635048525911005
02:31,0.12470243545138253
02:31,0.12506866874198866
02:31,0.12342061893426112
02:31,0.11774400292986632
02:31,0.11078557040835012
02:31,0.10867972898736496
02:31,0.11334920344259293
02:31,0.11939205273759385
02:31,0.12259659403039737
02:31,0.12415308551547335
02:31,0.12506866874198866
02:31,0.12314594396630654
02:31,0.1138985533785021
02:31,0.09476286394433255
02:31,0.07040835011902583
02:31,0.05072331074894708
02:31,0.04046877861197583
02:31,0.03360190441311115
02:31,0.021058414209851675
02:31,0.0020142830983336385
02:31,-0.015748031496062992
02:31,-0.027375938472807178
02:31,-0.037905145577733015
02:31,-0.05722395165720564
02:31,-0.08963559787584692
02:31,-0.12863944332539828
02:31,-0.162516022706464
02:31,-0.18403222852957335
02:31,-0.19630104376487822
02:31,-0.20811206738692548
02:31,-0.22578282365867058
02:31,-0.24958798754806813
02:31,-0.2731184764695111
02:31,-0.29005676616004394
02:31,-0.2993957150704999
02:31,-0.3037905145577733
02:31,-0.30507233107489473
02:31,-0.30296648965390954
02:31,-0.29637429042299945
02:31,-0.2854788500274675
02:31,-0.27385094305072333
02:31,-0.26606848562534335
02:31,-0.26203991942867605
02:31,-0.25764511994140266
02:31,-0.2517853872917048
02:31,-0.24958798754806813
02:31,-0.2591100531038271
02:31,-0.28373924189708843
02:31,-0.31459439663065375
02:31,-0.3346456692913386
02:31,-0.3340047610327779
02:31,-0.3205456876030031
02:31,-0.3120307635964109
02:31,-0.3183482878593664
02:31,-0.3347372276139901
02:31,-0.35359824208020507
02:31,-0.37493133125801137
02:31,-0.39827870353415123
02:31,-0.41649880974180553
02:31,-0.4280351583958982
02:31,-0.4388390404687786
02:31,-0.45129097234938653
02:31,-0.46053836293719097
02:31,-0.46584874565097967
02:31,-0.47271561984984434
02:31,-0.4838857352133309
02:31,-0.49514740889946895
02:31,-0.5017396081303791
02:31,-0.5039370078740157
02:31,-0.5045779161325764
02:31,-0.5050357077458341
02:31,-0.5041201245193188
02:31,-0.496887017029848
02:31,-0.4783006775315876
02:31,-0.45312213880241714
02:31,-0.4342611243362022
02:31,-0.42940853323567113
02:31,-0.43682475737044496
02:31,-0.449459805896356
02:31,-0.4546786302874931
02:31,-0.4458890313129463
02:31,-0.4311481413660502
02:31,-0.41933711774400295
02:31,-0.40889946896172863
02:31,-0.39672221204907526
02:31,-0.3848196301043765
02:31,-0.3772202893242996
02:31,-0.3745650979674052
02:31,-0.37520600622596595
02:31,-0.3758469144845266
02:31,-0.3703534151254349
02:31,-0.35249954220838675
02:31,-0.3262223036073979
02:31,-0.30333272294451563
02:31,-0.2906061160959531
02:31,-0.28438015015564916
02:31,-0.27797106757004214
02:31,-0.2671671854971617
02:31,-0.252334737227614
02:31,-0.23640358908624795
02:31,-0.22102179088079107
02:31,-0.2047244094488189
02:31,-0.18586339498260393
02:31,-0.1678264054202527
02:31,-0.156106940120857
02:31,-0.14978941585790148
02:31,-0.14063358359274858
02:31,-0.1239699688701703
02:31,-0.10483427943600074
02:31,-0.09110053103827138
02:31,-0.08414209851675518
02:31,-0.07965574070683025
02:31,-0.07434535799304157
02:31,-0.06738692547152536
02:31,-0.05786485991576634
02:31,-0.04477201977659769
02:31,-0.027833730086064823
02:31,-0.010437648782274309
02:31,0.0011902581944698773
02:31,0.003387657938106574
02:31,-0.00375389122871269
02:31,-0.01776231459439663
02:31,-0.032320087895989745
02:31,-0.04120124519318806
02:31,-0.043673319904779344
02:31,-0.04294085332356711
02:31,-0.04019410364402124
02:31,-0.034334370994323384
02:31,-0.026460355246291888
02:31,-0.018036989562351217
02:31,-0.00842336568394067
02:31,0.0031129829701519868
02:31,0.015107123237502289
02:31,0.02517853872917048
02:31,0.03213697125068669
02:31,0.036073979124702435
02:31,0.03946163706280901
02:31,0.044405786485991576
02:31,0.051181102362204724
02:31,0.05887200146493316
02:31,0.06647134224501007
02:31,0.07233107489470793
02:31,0.07553561618751145
02:31,0.07800769089910273
02:31,0.08569859000183117
02:31,0.10336934627357627
02:31,0.12552646035524628
02:31,0.14063358359274858
02:31,0.1451199414026735
02:31,0.14594396630653728
02:31,0.14942318256729537
02:31,0.15464200695843253
02:31,0.1564731734114631
02:31,0.154550448635781
02:31,0.15162058231093206
02:31,0.15043032411646218
02:31,0.15537447353964476
02:31,0.1706647134224501
02:31,0.19291338582677164
02:31,0.21442959164988099
02:31,0.23173411463101995
02:31,0.24592565464200697
02:31,0.2555392785204175
02:31,0.25746200329609964
02:31,0.2559055118110236
02:31,0.25819446987731187
02:31,0.2655191356894342
02:31,0.27595678447170846
02:31,0.2883171580296649
02:31,0.301318439846182
02:31,0.31285478850027465
02:31,0.31880607947262407
02:31,0.3174327046328511
02:31,0.3130379051455777
02:31,0.31056583043398645
02:31,0.31029115546603186
02:31,0.3094671305621681
02:31,0.30598791430141
02:31,0.3002197399743637
02:31,0.29289507416224136
02:31,0.2830067753158762
02:31,0.2709210767258744
02:31,0.25984251968503935
02:31,0.2485808459989013
02:31,0.2315509979857169
02:31,0.21333089177806264
02:31,0.2106757004211683
02:31,0.22642373191723128
02:31,0.24565097967405236
02:31,0.25984251968503935
02:31,0.269822376854056
02:31,0.2842885918329976
02:31,0.3166086797289874
02:31,0.36138069950558505
02:31,0.3896722212049075
02:31,0.3745650979674052
02:31,0.3081853140450467
02:31,0.20298480131843985
02:31,0.0958615638161509
02:31,0.029207104925837758
02:31,0.0025636330342428126
02:31,-0.01602270646401758
02:31,-0.032228529573338216
02:31,-0.033327229445156564
02:31,-0.02252334737227614
02:31,-0.006958432521516206
02:31,0.012451931880607947
02:31,0.03177073796008057
02:31,0.044497344808643105
02:31,0.04980772752243179
02:31,0.05090642739425014
02:31,0.049258377586522614
02:31,0.04239150338765794
02:31,0.03085515473356528
02:31,0.021058414209851675
02:31,0.01693828969053287
02:31,0.016388939754623695
02:31,0.017029848013184398
02:31,0.016572056399926753
02:31,0.011627906976744186
02:31,0.00018311664530305805
02:31,-0.01684673136788134
02:31,-0.034334370994323384
02:31,-0.04486357809924922
02:31,-0.045504486357809924
02:31,-0.039919428676066654
02:31,-0.03351034609045962
02:31,-0.028383080021973997
02:31,-0.023713605566746017
02:31,-0.020142830983336385
02:31,-0.019410364402124153
02:31,-0.02243178904962461
02:31,-0.030214246475004577
02:31,-0.041567478483794176
02:31,-0.053012268815235304
02:31,-0.06180186778978209
02:31,-0.06784471708478301
02:31,-0.07498626625160228
02:31,-0.08752975645486175
02:31,-0.10391869620948545
02:31,-0.1163706280900934
02:31,-0.11975828602819996
02:31,-0.1163706280900934
02:31,-0.11023622047244094
02:31,-0.09998168833546969
02:31,-0.08350119025819447
02:31,-0.06482329243728255
02:31,-0.05081486907159861
02:31,-0.044405786485991576
02:31,-0.04495513642190075
02:31,-0.05054019410364402
02:31,-0.059421351400842336
02:31,-0.06903497527925288
02:31,-0.07516938289690533
02:31,-0.07590184947811757
02:31,-0.07233107489470793
02:31,-0.06427394250137337
02:31,-0.050082402490386375
02:31,-0.029664896539095403
02:31,-0.006866874198864677
02:31,0.012818165171214063
02:31,0.02710126350485259
02:31,0.03479216260758103
02:31,0.03305255447720198
02:31,0.02160776414576085
02:31,0.004944149423182567
02:31,-0.01117011536348654
02:31,-0.02353048892144296
02:31,-0.029664896539095403
02:31,-0.02819996337667094
02:31,-0.02060062259659403
02:31,-0.01318439846182018
02:31,-0.013275956784471708
02:31,-0.021241530855154733
02:31,-0.031221388024171397
02:31,-0.04056033693462736
02:31,-0.052829152169932246
02:31,-0.07178172495879875
02:31,-0.09384728071781726
02:31,-0.10996154550448636
02:31,-0.1154550448635781
02:31,-0.11325764511994141
02:31,-0.10877128731001648
02:31,-0.10538362937190991
02:31,-0.1034609045962278
02:31,-0.10300311298297016
02:31,-0.10657388756637978
02:31,-0.11756088628456327
02:31,-0.1337667093938839
02:31,-0.14814136605017397
02:31,-0.15638161508881157
02:31,-0.16013550631752427
02:31,-0.16425563083684308
02:31,-0.1706647134224501
02:31,-0.17414392968320822
02:31,-0.16828419703351036
02:31,-0.15262772386009887
02:31,-0.13101995971433802
02:31,-0.11014466214978942
02:31,-0.09750961362387842
02:31,-0.09412195568577184
02:31,-0.09522065555759018
02:31,-0.09732649697857536
02:31,-0.09952389672221205
02:31,-0.09998168833546969
02:31,-0.09265702252334737
02:31,-0.07242263321735946
02:31,-0.043581761582127815
02:31,-0.017579197949093572
02:31,0.0005493499359091741
02:31,0.015107123237502289
02:31,0.03103827137886834
02:31,0.048342794360007324
02:31,0.062351217725691264
02:31,0.06930965024720748
02:31,0.06976744186046512
02:31,0.06674601721296466
02:31,0.062442776048342793
02:31,0.058597326496978575
02:31,0.05905511811023622
02:31,0.06976744186046512
02:31,0.09467130562168101
02:31,0.12891411829335286
02:31,0.15976927302691815
02:31,0.17643288774949642
02:31,0.17954587071964842
02:31,0.17679912104010254
02:31,0.17405237136055668
02:31,0.17258743819813221
02:31,0.1713056216810108
02:31,0.16974913019593482
02:31,0.1693828969053287
02:31,0.17258743819813221
02:31,0.1807361289141183
02:31,0.19163156930965025
02:31,0.20170298480131843
02:31,0.2094854422266984
02:31,0.21561984984435084
02:31,0.2214795824940487
02:31,0.22761399011170116
02:31,0.23448086431056583
02:31,0.24473539644753708
02:31,0.25984251968503935
02:31,0.27485808459989014
02:31,0.28456326680095223
02:31,0.2894158579014832
02:31,0.2926203991942868
02:31,0.2958249404870903
02:31,0.3003112982970152
02:31,0.307727522431789
02:31,0.3199047793444424
02:31,0.33556125251785385
02:31,0.3458157846548251
02:31,0.3455411096868705
02:31,0.3447170847830068
02:31,0.35149240065921994
02:31,0.3606482329243728
02:31,0.36550082402490386
02:31,0.3652261490569493
02:31,0.36220472440944884
02:31,0.35918329976194835
02:31,0.3568027833730086
02:31,0.3561618751144479
02:31,0.3617469327961912
02:31,0.37712873100164807
02:31,0.397546236952939
02:31,0.4123786852224867
02:31,0.4188793261307453
02:31,0.42473905878044316
02:31,0.43700787401574803
02:31,0.45074162241347737
02:31,0.46062992125984253
02:31,0.4754623695293902
02:31,0.49734480864310565
02:31,0.504669474455228
02:31,0.488921442959165
02:31,0.46951107855704083
02:31,0.4599890130012818
02:31,0.4656656290056766
02:31,0.49633766709393884
02:31,0.5428492950009156
02:31,0.5770005493499359
02:31,0.5848745650979674
02:31,0.568027833730086
02:31,0.52993957150705
02:31,0.4819630104376488
02:31,0.44021241530855154
02:31,0.40880791063907707
02:31,0.38701702984801317
02:31,0.38179820545687604
02:31,0.3890313129463468
02:31,0.39049624610877126
02:31,0.3854605383629372
02:31,0.3854605383629372
02:31,0.3885735213330892
02:31,0.38729170481596775
02:31,0.3803332722944516
02:31,0.3690715986083135
02:31,0.356344991759751
02:31,0.3466398095586889
02:31,0.3378502105841421
02:31,0.3195385460538363
02:31,0.2787950924739059
02:31,0.2053653177073796
02:31,0.10053103827137887
02:31,-0.0233473722761399
02:31,-0.15134590734297748
02:31,-0.2635964109137521
02:31,-0.34087163523164254
02:31,-0.37868522248672404
02:31,-0.3888481963010438
02:31,-0.38784105475187697
02:31,-0.38729170481596775
02:31,-0.39150338765793813
02:31,-0.3983702618568028
02:31,-0.4040468778611976
02:31,-0.41018128547885
02:31,-0.4221754257462003
02:31,-0.43810657388756635
02:31,-0.454312396996887
02:31,-0.47399743636696573
02:31,-0.5010986998718183
02:31,-0.5311298297015199
02:31,-0.5539278520417505
02:31,-0.5650979674052371
02:31,-0.5681193920527376
02:31,-0.5685771836659952
02:31,-0.569218091924556
02:31,-0.569401208569859
02:31,-0.5640908258560703
02:31,-0.5476103277787951
02:31,-0.521790880791064
02:31,-0.4945980589635598
02:31,-0.47051822010620764
02:31,-0.4516572056399927
02:31,-0.4407617652444607
02:31,-0.4391137154367332
02:31,-0.44469877311847644
02:31,-0.4523896722212049
02:31,-0.457425379967039
02:31,-0.4592565464200696
02:31,-0.4592565464200696
02:31,-0.4569675883537814
02:31,-0.4505585057681743
02:31,-0.4407617652444607
02:31,-0.43105658304339867
02:31,-0.424372825489837
02:31,-0.4208936092290789
02:31,-0.4191540010986999
02:31,-0.41796374290423
02:31,-0.41713971800036626
02:31,-0.4166819263871086
02:31,-0.41659036806445704
02:31,-0.4167734847097601
02:31,-0.41750595129097234
02:31,-0.41878776780809374
02:31,-0.41970335103460904
02:31,-0.4201611426478667
02:31,-0.41979490935726055
02:31,-0.4137520600622597
02:31,-0.394250137337484
02:31,-0.3606482329243728
02:31,-0.32228529573338216
02:31,-0.2893242995788317
02:31,-0.2677165354330709
02:31,-0.2590184947811756
02:31,-0.2582860281999634
02:31,-0.2536165537447354
02:31,-0.2337483977293536
02:31,-0.1993224684123787
02:31,-0.16260758102911554
02:31,-0.1344076176524446
02:31,-0.11792711957516938
02:31,-0.1106940120856986
02:31,-0.10739791247024355
02:31,-0.10391869620948545
02:31,-0.09915766343160594
02:31,-0.09448818897637795
02:31,-0.09503753891228713
02:31,-0.1047427211133492
02:31,-0.12058231093206373
02:31,-0.13843618384911188
02:31,-0.15967771470426662
02:31,-0.18449002014283097
02:31,-0.20921076725874382
02:31,-0.23292437282548983
02:31,-0.2567295367148874
02:31,-0.2796191173777696
02:31,-0.3032411646218641
02:31,-0.329701519868156
02:31,-0.3546053836293719
02:31,-0.3697125068668742
02:31,-0.3729170481596777
02:31,-0.3690715986083135
02:31,-0.36357809924922174
02:31,-0.36009888298846365
02:31,-0.36101446621497896
02:31,-0.3672404321552829
02:31,-0.37749496429225415
02:31,-0.38930598791430143
02:31,-0.40120856985900016
02:31,-0.4122871268998352
02:31,-0.4221754257462003
02:31,-0.4330708661417323
02:31,-0.4470792895074162
02:31,-0.465390954037722
02:31,-0.48947079289507417
02:31,-0.5164804980772753
02:31,-0.5362570957700055
02:31,-0.541018128547885
02:31,-0.5305804797656107
02:31,-0.5087895989745468
02:31,-0.48342794360007324
02:31,-0.4631019959714338
02:31,-0.45065006409082586
02:31,-0.4427760483427944
02:31,-0.4360007324665812
02:31,-0.427485808459989
02:31,-0.4160410181285479
02:31,-0.4007507782457425
02:31,-0.3778611975828603
02:31,-0.3475553927852042
02:31,-0.31880607947262407
02:31,-0.3009522065555759
02:31,-0.2938106573887566
02:31,-0.28886650796557406
02:31,-0.27797106757004214
02:31,-0.2592016114264787
02:31,-0.23667826405420253
02:31,-0.21360556674601722
02:31,-0.1852224867240432
02:31,-0.1429225416590368
02:31,-0.08936092290789233
02:31,-0.038820728804248306
02:31,0.0
02:31,0.028566196667277055
02:31,0.05227980223402307
02:31,0.08533235671122505
02:31,0.14878227430873467
02:31,0.24436916315693097
02:31,0.3391320271012635
02:31,0.40139168650430324
02:31,0.4372825489837026
02:31,0.4674967954587072
02:31,0.49523896722212046
02:31,0.5117194652993957
02:31,0.5131843984618202
02:31,0.5055850576817432
02:31,0.4977110419337118
02:31,0.4936824757370445
02:31,0.4914850759934078
02:31,0.487364951474089
02:31,0.48031496062992124
02:31,0.47262406152719283
02:31,0.4674967954587072
02:31,0.4652993957150705
02:31,0.4631935542940853
02:31,0.46062992125984253
02:31,0.46365134590734297
02:31,0.47994872733931515
02:31,0.5032045412928036
02:31,0.5076908991027285
02:31,0.4760117194652994
02:31,0.42373191723127634
02:31,0.3811572971983153
02:31,0.3750228895806629
02:31,0.41320271012635046
02:31,0.4642922541659037
02:31,0.4836110602453763
02:31,0.4580662882255997
02:31,0.4049624610877129
02:31,0.35249954220838675
02:31,0.32255997070133674
02:31,0.31486907159860833
02:31,0.3176158212781542
02:31,0.32008789598974546
02:31,0.31459439663065375
02:31,0.30296648965390954
02:31,0.2911554660318623
02:31,0.27897820911920895
02:31,0.26542757736678263
02:31,0.2537996703900385
02:31,0.2489470792895074
02:31,0.2494964292254166
02:31,0.2479399377403406
02:31,0.24088994689617285
02:31,0.23246658121223218
02:31,0.2236769822376854
02:31,0.20957700054934994
02:31,0.1867789782091192
02:31,0.15958615638161508
02:31,0.13843618384911188
02:31,0.1274491851309284
02:31,0.12213880241713972
02:31,0.11811023622047244
02:31,0.11563816150888116
02:31,0.11499725325032045
02:31,0.11408167002380516
02:31,0.1069401208569859
02:31,0.08203625709577
02:31,0.03268632118659586
02:31,-0.01602270646401758
02:31,-0.01867789782091192
02:31,0.03167917963742904
02:31,0.09540377220289324
02:31,0.1463101995971434
02:31,0.18778611975828602
02:31,0.22184581578465482
02:31,0.2483061710309467
02:31,0.269822376854056
02:31,0.27577366782640544
02:31,0.24656656290056767
02:31,0.17652444607214796
02:31,0.07892327412561802
02:31,-0.024537630470609778
02:31,-0.11060245376304706
02:31,-0.16736861380699505
02:31,-0.20069584325215162
02:31,-0.21507049990844168
02:31,-0.21516205823109322
02:31,-0.2123237502288958
02:31,-0.20271012635048527
02:31,-0.17359457974729903
02:31,-0.1318439846182018
02:31,-0.09329793078190808
02:31,-0.0630836843069035
02:31,-0.04056033693462736
02:31,-0.02527009705182201
02:31,-0.019868156015381798
02:31,-0.026460355246291888
02:31,-0.03726423731917231
02:31,-0.04248306171030947
02:31,-0.041567478483794176
02:31,-0.039736312030763596
02:31,-0.044497344808643105
02:31,-0.06116095953122139
02:31,-0.08514924006592199
02:31,-0.1047427211133492
02:31,-0.11362387841054752
02:31,-0.11472257828236587
02:31,-0.11380699505585058
02:31,-0.11600439479948728
02:31,-0.1239699688701703
02:31,-0.13523164255630837
02:31,-0.14502838308002197
02:31,-0.15189525727888664
02:31,-0.15665629005676615
02:31,-0.15912836476835746
02:31,-0.1593114814136605
02:31,-0.1586705731550998
02:31,-0.15848745650979673
02:31,-0.15857901483244827
02:31,-0.1577549899285845
02:31,-0.15473356528108406
02:31,-0.15033876579381067
02:31,-0.14676799121040102
02:31,-0.14502838308002197
02:31,-0.1442043581761582
02:31,-0.14145760849661235
02:31,-0.1337667093938839
02:31,-0.11783556125251786
02:31,-0.09155832265152902
02:31,-0.058414209851675516
02:31,-0.029481779893792345
02:31,-0.014283098333638528
02:31,-0.010437648782274309
02:31,-0.008514924006592199
02:31,-0.003296099615455045
02:31,0.0027467496795458707
02:31,0.008789598974546786
02:31,0.021149972532503204
02:31,0.04687786119758286
02:31,0.08688884819630105
02:31,0.13047060977842886
02:31,0.1603186229628273
02:31,0.16837575535616187
02:31,0.1564731734114631
02:31,0.13138619300494414
02:31,0.11115180369895623
02:31,0.11160959531221389
02:31,0.12213880241713972
02:31,0.12039919428676067
02:31,0.10007324665812123
02:31,0.06766160043947995
02:31,0.0438564365500824
02:31,0.05621681010803882
02:31,0.10492583775865226
02:31,0.1608679728987365
02:31,0.19630104376487822
02:31,0.1895257278886651
02:31,0.12992125984251968
02:31,0.0432155282915217
02:31,-0.021241530855154733
02:31,-0.030397363120307636
02:31,0.015748031496062992
02:31,0.0744369163156931
02:31,0.09155832265152902
02:31,0.06802783373008607
02:31,0.04403955319538546
02:31,0.039003845449551364
02:31,0.04962461087712873
02:31,0.07086614173228346
02:31,0.09531221388024172
02:31,0.11600439479948728
02:31,0.1337667093938839
02:31,0.14750045779161325
02:31,0.15006409082585606
02:31,0.13761215894524811
02:31,0.11453946163706281
02:31,0.08789598974546786
02:31,0.06482329243728255
02:31,0.05044863578099249
02:31,0.044588903131294634
02:31,0.04339864493682476
02:31,0.04413111151803699
02:31,0.04706097784288592
02:31,0.051913568943416956
02:31,0.054934993590917414
02:31,0.05447720197765977
02:31,0.05639992675334188
02:31,0.06610510895440395
02:31,0.08267716535433071
02:31,0.10181285478850027
02:31,0.11875114447903315
02:31,0.1302874931331258
02:31,0.137245925654642
02:31,0.14264786669108223
02:31,0.14804980772752244
02:31,0.15308551547335653
02:31,0.15500824024903864
02:31,0.15345174876396264
02:31,0.15281084050540195
02:31,0.15903680644570592
02:31,0.17359457974729903
02:31,0.19236403589086248
02:31,0.208203625709577
02:31,0.21653543307086615
02:31,0.21845815784654826
02:31,0.21790880791063907
02:31,0.2167185497161692
02:31,0.2138802417139718
02:31,0.2088445339681377
02:31,0.20444973448086431
02:31,0.20444973448086431
02:31,0.20921076725874382
02:31,0.21406335835927487
02:31,0.21378868339132026
02:31,0.208203625709577
02:31,0.19923091008972715
02:31,0.18687053653177074
02:31,0.17212964658487456
02:31,0.15720563999267534
02:31,0.14109137520600623
02:31,0.12451931880607947
02:31,0.11316608679728987
02:31,0.110419337117744
02:31,0.11289141182933529
02:31,0.11499725325032045
02:31,0.11243362021607764
02:31,0.10437648782274309
02:31,0.0921076725874382
02:31,0.07736678264054203
02:31,0.062168101080388206
02:31,0.049258377586522614
02:31,0.03964475370811207
02:31,0.034334370994323384
02:31,0.03808826222303607
02:31,0.05603369346273576
02:31,0.08185314045046695
02:31,0.09979857169016663
02:31,0.09805896355978759
02:31,0.07553561618751145
02:31,0.043673319904779344
02:31,0.018128547885002746
02:31,0.004486357809924922
02:31,-0.0003662332906061161
02:31,-0.0007324665812122322
02:31,0.0003662332906061161
02:31,0.0016480498077275224
02:31,0.0020142830983336385
02:31,-0.0008240249038637612
02:31,-0.009247390587804431
02:31,-0.022065555759018494
02:31,-0.0353415125434902
02:31,-0.04696941952023439
02:31,-0.0574070683025087
02:31,-0.069401208569859
02:31,-0.08780443142281634
02:31,-0.11600439479948728
02:31,-0.1473173411463102
02:31,-0.16956601355063175
02:31,-0.1788134041384362
02:31,-0.18110236220472442
02:31,-0.17954587071964842
02:31,-0.17103094671305621
02:31,-0.1554660318622963
02:31,-0.1431972166269914
02:31,-0.13578099249221753
02:31,-0.11234206189342612
02:31,-0.05649148507599341
02:31,0.018952572788866508
02:31,0.08698040651895257
02:31,0.13138619300494414
02:31,0.15125434902032595
02:31,0.1511627906976744
02:31,0.126167368613807
02:31,0.059604468046145394
02:31,-0.04715253616553745
02:31,-0.16453030580479766
02:31,-0.2602087529756455
02:31,-0.3088262223036074
02:31,-0.29573338216443873
02:31,-0.2369529390221571
02:31,-0.16791796374290424
02:31,-0.11380699505585058
02:31,-0.08615638161508882
02:31,-0.0807544405786486
02:31,-0.07745834096319355
02:31,-0.060520051272660684
02:31,-0.033327229445156564
02:31,-0.008698040651895257
02:31,0.0058597326496978575
02:31,0.009888298846365134
02:31,0.0059512909723493865
02:31,-0.0009155832265152902
02:31,-0.006683757553561619
02:31,-0.010620765427577367
02:31,-0.01400842336568394
02:31,-0.016297381431972166
02:31,-0.01693828969053287
02:31,-0.017487639626442043
02:31,-0.02234023072697308
02:31,-0.03387657938106574
02:31,-0.0460538362937191
02:31,-0.04934993590917414
02:31,-0.043581761582127815
02:31,-0.0353415125434902
02:31,-0.027650613440761765
02:31,-0.021241530855154733
02:31,-0.013550631752426295
02:31,0.00027467496795458707
02:31,0.018952572788866508
02:31,0.03378502105841421
02:31,0.039919428676066654
02:31,0.039736312030763596
02:31,0.03625709577000549
02:31,0.029756454861746932
02:31,0.019868156015381798
02:31,0.007233107489470793
02:31,-0.008148690715986083
02:31,-0.024171397180003662
02:31,-0.03094671305621681
02:31,-0.021149972532503204
02:31,-0.0008240249038637612
02:31,0.016388939754623695
02:31,0.023896722212049075
02:31,0.026002563633034242
02:31,0.0325032045412928
02:31,0.04980772752243179
02:31,0.07608496612342062
02:31,0.10245376304706098
02:31,0.11847646951107856
02:31,0.1195751693828969
02:31,0.1138985533785021
02:31,0.11399011170115364
02:31,0.1204907526094122
02:31,0.12497711041933712
02:31,0.1217725691265336
02:31,0.11142647866691083
02:31,0.09998168833546969
02:31,0.09348104742721114
02:31,0.09183299761948362
02:31,0.09155832265152902
02:31,0.09000183116645304
02:31,0.0864310565830434
02:31,0.08112067386925471
02:31,0.07407068302508699
02:31,0.06427394250137337
02:31,0.05145577733015931
02:31,0.036989562351217725
02:31,0.02060062259659403
02:31,0.0015564914850759934
02:31,-0.014649331624244644
02:31,-0.023255813953488372
02:31,-0.03341878776780809
02:31,-0.05411096868705365
02:31,-0.07544405786485991
02:31,-0.08624793993774034
02:31,-0.08844533968137704
02:31,-0.08707196484160411
02:31,-0.08212781541842154
02:31,-0.07342977476652628
02:31,-0.06509796740523714
02:31,-0.05914667643288775
02:31,-0.05218824391137154
02:31,-0.0438564365500824
02:31,-0.038820728804248306
02:31,-0.03918696209485442
02:31,-0.04001098699871818
02:31,-0.03442592931697491
02:31,-0.021333089177806262
02:31,-0.005493499359091741
02:31,0.007874015748031496
02:31,0.01318439846182018
02:31,0.010620765427577367
02:31,0.008148690715986083
02:31,0.01126167368613807
02:31,0.024171397180003662
02:31,0.04861746932796191
02:31,0.07278886650796558
02:31,0.083592748580846
02:31,0.08276872367698224
02:31,0.07754989928584509
02:31,0.07242263321735946
02:31,0.06702069218091924
02:31,0.05914667643288775
02:31,0.050082402490386375
02:31,0.04422266984068852
02:31,0.04248306171030947
02:31,0.042757736678264054
02:31,0.04339864493682476
02:31,0.04495513642190075
02:31,0.048342794360007324
02:31,0.05255447720197766
02:31,0.05539278520417506
02:31,0.056583043398644936
02:31,0.059421351400842336
02:31,0.06674601721296466
02:31,0.07608496612342062
02:31,0.0807544405786486
02:31,0.07718366599523897
02:31,0.06903497527925288
02:31,0.062259659403039735
02:31,0.05777330159311481
02:31,0.05365317707379601
02:31,0.05063175242629555
02:31,0.051913568943416956
02:31,0.0608862845632668
02:31,0.07965574070683025
02:31,0.10465116279069768
02:31,0.12598425196850394
02:31,0.13623878410547519
02:31,0.1322102179088079
02:31,0.11279985350668376
02:31,0.08258560703167918
02:31,0.04989928584508332
02:31,0.02069218091924556
02:31,-0.0021058414209851675
02:31,-0.017304522981138985
02:31,-0.02536165537447354
02:31,-0.028383080021973997
02:31,-0.02911554660318623
02:31,-0.0325032045412928
02:31,-0.04870902765061344
02:31,-0.08569859000183117
02:31,-0.1331258011353232
02:31,-0.16773484709760117
02:31,-0.1791796374290423
02:31,-0.17414392968320822
02:31,-0.16077641457608496
02:31,-0.14649331624244644
02:31,-0.14182384178721846
02:31,-0.15436733199047795
02:31,-0.18192638710858816
02:31,-0.21681010803882073
02:31,-0.2529756454861747
02:31,-0.28245742537996704
02:31,-0.2983885735213331
02:31,-0.3053470060428493
02:31,-0.31367881340413845
02:31,-0.3261307452847464
02:31,-0.33675151071232373
02:31,-0.34206189342611243
02:31,-0.34279436000732466
02:31,-0.33611060245376306
02:31,-0.3175242629555027
02:31,-0.29097234938655925
02:31,-0.2657938106573888
02:31,-0.24537630470609778
02:31,-0.2284380150155649
02:31,-0.21662699139351768
02:31,-0.21140816700238052
02:31,-0.21058414209851675
02:31,-0.21076725874381982
02:31,-0.20939388390404687
02:31,-0.20518220106207655
02:31,-0.19767441860465115
02:31,-0.18751144479033144
02:31,-0.17753158762131477
02:31,-0.16965757187328329
02:31,-0.16114264786669108
02:31,-0.1527192821827504
02:31,-0.1551913568943417
02:31,-0.17212964658487456
02:31,-0.18696209485442228
02:31,-0.18091924555942135
02:31,-0.1539095403772203
02:31,-0.11646218641274492
02:31,-0.07718366599523897
02:31,-0.037081120673869254
02:31,0.012818165171214063
02:31,0.07178172495879875
02:31,0.11206738692547152
02:31,0.10172129646584875
02:31,0.025727888665079655
02:31,-0.09924922175425746
02:31,-0.22184581578465482
02:31,-0.2958249404870903
02:31,-0.31459439663065375
02:31,-0.3025086980406519
02:31,-0.28978209119208936
02:31,-0.2911554660318623
02:31,-0.2979307819080754
02:31,-0.2925288408716352
02:31,-0.2681743270463285
02:31,-0.23383995605200514
02:31,-0.20151986815601539
02:31,-0.17753158762131477
02:31,-0.16507965574070682
02:31,-0.16453030580479766
02:31,-0.16828419703351036
02:31,-0.16883354696941952
02:31,-0.16956601355063175
02:31,-0.1744186046511628
02:31,-0.17954587071964842
02:31,-0.18165171214063358
02:31,-0.18128547885002746
02:31,-0.18064457059146677
02:31,-0.18128547885002746
02:31,-0.1848562534334371
02:31,-0.19126533601904414
02:31,-0.19831532686321188
02:31,-0.20170298480131843
02:31,-0.19721662699139353
02:31,-0.1835744369163157
02:31,-0.16507965574070682
02:31,-0.1485991576634316
02:31,-0.13687969236403588
02:31,-0.1284563266800952
02:31,-0.1258926936458524
02:31,-0.1322102179088079
02:31,-0.14219007507782458
02:31,-0.14878227430873467
02:31,-0.15152902398828053
02:31,-0.15345174876396264
02:31,-0.1532686321186596
02:31,-0.14191540010987
02:31,-0.11087712873100165
02:31,-0.06949276689251054
02:31,-0.03909540377220289
02:31,-0.026551913568943417
02:31,-0.020966855887200146
02:31,-0.014374656656290057
02:31,-0.008972715619849844
02:31,-0.007599340780076909
02:31,-0.008514924006592199
02:31,-0.005676616004394799
02:31,0.006317524262955503
02:31,0.026460355246291888
02:31,0.04843435268265885
02:31,0.06894341695660136
02:31,0.08945248123054386
02:31,0.10959531221388025
02:31,0.12488555209668559
02:31,0.13431605932979307
02:31,0.14209851675517304
02:31,0.15097967405237137
02:31,0.15894524812305438
02:31,0.16352316425563085
02:31,0.16855887200146494
02:31,0.17689067936275407
02:31,0.1820179454312397
02:31,0.178264054202527
02:31,0.16709393883904047
02:31,0.1507965574070683
02:31,0.1283647683574437
02:31,0.09879143014099982
02:31,0.06802783373008607
02:31,0.04751876945614356
02:31,0.040835011902581944
02:31,0.041567478483794176
02:31,0.04477201977659769
02:31,0.05063175242629555
02:31,0.059421351400842336
02:31,0.06811939205273759
02:31,0.07379600805713239
02:31,0.07626808276872368
02:31,0.07480314960629922
02:31,0.06464017579197949
02:31,0.04330708661417323
02:31,0.018128547885002746
02:31,0.0004577916132576451
02:31,-0.006317524262955503
02:31,-0.0061344076176524445
02:31,0.00018311664530305805
02:31,0.015748031496062992
02:31,0.03763047060977843
02:31,0.05447720197765977
02:31,0.058414209851675516
02:31,0.05255447720197766
02:31,0.045321369712506866
02:31,0.0403772202893243
02:31,0.036989562351217725
02:31,0.03497527925288409
02:31,0.03497527925288409
02:31,0.03763047060977843
02:31,0.042574620032960996
02:31,0.04751876945614356
02:31,0.05163889397546237
02:31,0.05786485991576634
02:31,0.06857718366599524
02:31,0.08130379051455777
02:31,0.09009338948910456
02:31,0.09229078923274125
02:31,0.09045962277971067
02:31,0.08853689800402857
02:31,0.08762131477751328
02:31,0.0877128731001648
02:31,0.09009338948910456
02:31,0.09723493865592382
02:31,0.10803882072880425
02:31,0.11618751144479034
02:31,0.11270829518403223
02:31,0.09055118110236221
02:31,0.053927852041750594
02:31,0.020417505951290972
02:31,0.006409082585607032
02:31,0.015748031496062992
02:31,0.042757736678264054
02:31,0.0766343160593298
02:31,0.10574986266251603
02:31,0.12277971067570043
02:31,0.12699139351767075
02:31,0.12158945248123054
02:31,0.11078557040835012
02:31,0.09952389672221205
02:31,0.0914667643288775
02:31,0.08670573155099799
02:31,0.08441677348470976
02:31,0.0842336568394067
02:31,0.08542391503387659
02:31,0.0864310565830434
02:31,0.08560703167917964
02:31,0.08084599890130013
02:31,0.07379600805713239
02:31,0.07104925837758652
02:31,0.07526094121955686
02:31,0.07864859915766344
02:31,0.07379600805713239
02:31,0.0639992675334188
02:31,0.053012268815235304
02:31,0.04001098699871818
02:31,0.029664896539095403
02:31,0.033327229445156564
02:31,0.056766160043947994
02:31,0.09000183116645304
02:31,0.11453946163706281
02:31,0.12360373557956418
02:31,0.12415308551547335
02:31,0.12223036073979125
02:31,0.11682841970335103
02:31,0.10565830433986449
02:31,0.09192455594213514
02:31,0.08194469877311848
02:31,0.08002197399743637
02:31,0.08441677348470976
02:31,0.08872001464933163
02:31,0.08981871452114998
02:31,0.09128364768357444
02:31,0.09476286394433255
02:31,0.09824208020509065
02:31,0.10199597143380333
02:31,0.10666544588903132
02:31,0.1126167368613807
02:31,0.12021607764145761
02:31,0.12818165171214063
02:31,0.13413294268449003
02:31,0.13797839223585423
02:31,0.14090825856070316
02:31,0.14173228346456693
02:31,0.13550631752426295
02:31,0.11673686138069951
02:31,0.08853689800402857
02:31,0.06280900933894891
02:31,0.04861746932796191
02:31,0.04477201977659769
02:31,0.04504669474455228
02:31,0.04504669474455228
02:31,0.04422266984068852
02:31,0.04376487822743087
02:31,0.04403955319538546
02:31,0.04486357809924922
02:31,0.04568760300311298
02:31,0.04330708661417323
02:31,0.03085515473356528
02:31,0.005768174327046328
02:31,-0.019227247756821095
02:31,-0.02069218091924556
02:31,0.011811023622047244
02:31,0.0672038088262223
02:31,0.1337667093938839
02:31,0.2088445339681377
02:31,0.2863944332539828
02:31,0.3464566929133858
02:31,0.36421900750778247
02:31,0.3302508698040652
02:31,0.2502288958066288
02:31,0.14026735030214246
02:31,0.028383080021973997
02:31,-0.06390770921076726
02:31,-0.12754074345357994
02:31,-0.15281084050540195
02:31,-0.1429225416590368
02:31,-0.11801867789782092
02:31,-0.09082585607031679
02:31,-0.06207654275773668
02:31,-0.03286943783189892
02:31,-0.005218824391137154
02:31,0.02069218091924556
02:31,0.042757736678264054
02:31,0.05639992675334188
02:31,0.06106940120856986
02:31,0.06116095953122139
02:31,0.06116095953122139
02:31,0.06116095953122139
02:31,0.05704083501190258
02:31,0.04477201977659769
02:31,0.027559055118110236
02:31,0.01492400659219923
02:31,0.012543490203259476
02:31,0.019410364402124153
02:31,0.03177073796008057
02:31,0.045321369712506866
02:31,0.05649148507599341
02:31,0.06381615088811574
02:31,0.06738692547152536
02:31,0.06793627540743453
02:31,0.06702069218091924
02:31,0.06811939205273759
02:31,0.07269730818531404
02:31,0.07892327412561802
02:31,0.0845083318073613
02:31,0.08872001464933163
02:31,0.09110053103827138
02:31,0.09128364768357444
02:31,0.08972715619849844
02:31,0.08917780626258927
02:31,0.09091741439296833
02:31,0.09183299761948362
02:31,0.09256546420069585
02:31,0.09815052188243911
02:31,0.10886284563266801
02:31,0.12323750228895806
02:31,0.14054202527009704
02:31,0.15656473173411464
02:31,0.1659036806445706
02:31,0.16837575535616187
02:31,0.16755173045229813
02:31,0.165629005676616
02:31,0.16269913935176708
02:31,0.16013550631752427
02:31,0.16279069767441862
02:31,0.17432704632851126
02:31,0.19034975279252883
02:31,0.20151986815601539
02:31,0.20417505951290973
02:31,0.20435817615821278
02:31,0.21278154184215345
02:31,0.2369529390221571
02:31,0.269822376854056
02:31,0.2934444240981505
02:31,0.2968320820362571
02:31,0.28227430873466397
02:31,0.25984251968503935
02:31,0.23896722212049076
02:31,0.22166269913935177
02:31,0.20655557590184948
02:31,0.19538546053836295
02:31,0.1886101446621498
02:31,0.18210950375389123
02:31,0.1690166636147226
02:31,0.14219007507782458
02:31,0.09833363852774217
02:31,0.04559604468046145
02:31,0.0030214246475004577
02:31,-0.0176707562717451
02:31,-0.02151620582310932
02:31,-0.0176707562717451
02:31,-0.012909723493865592
02:31,-0.016388939754623695
02:31,-0.035982420802050906
02:31,-0.0672038088262223
02:31,-0.0968687053653177
02:31,-0.11911737776963927
02:31,-0.137245925654642
02:31,-0.15564914850759934
02:31,-0.17927119575169384
02:31,-0.21662699139351768
02:31,-0.26835744369163156
02:31,-0.3185314045046695
02:31,-0.3509430507233107
02:31,-0.3682475737044497
02:31,-0.3821644387474821
02:31,-0.3952572788866508
02:31,-0.4024903863761216
02:31,-0.4017579197949094
02:31,-0.39580662882255996
02:31,-0.389580662882256
02:31,-0.3835378135872551
02:31,-0.373832631386193
02:31,-0.36000732466581215
02:31,-0.3466398095586889
02:31,-0.3344625526460355
02:31,-0.3188976377952756
02:31,-0.301318439846182
02:31,-0.28904962461087713
02:31,-0.28309833363852777
02:31,-0.27394250137337484
02:31,-0.252334737227614
02:31,-0.22056399926753342
02:31,-0.19199780260025637
02:31,-0.17396081303790514
02:31,-0.16114264786669108
02:31,-0.14740889946896174
02:31,-0.1331258011353232
02:31,-0.12158945248123054
02:31,-0.11426478666910822
02:31,-0.10593297930781909
02:31,-0.08661417322834646
02:31,-0.05621681010803882
02:31,-0.025544772019776597
02:31,-0.00375389122871269
02:31,0.008698040651895257
02:31,0.016388939754623695
02:31,0.022889580662882256
02:31,0.028749313312580113
02:31,0.032411646218641274
02:31,0.02911554660318623
02:31,0.01217725691265336
02:31,-0.01776231459439663
02:31,-0.048342794360007324
02:31,-0.06683757553561619
02:31,-0.07233107489470793
02:31,-0.06912653360190442
02:31,-0.05905511811023622
02:31,-0.045504486357809924
02:31,-0.036073979124702435
02:31,-0.03808826222303607
02:31,-0.05255447720197766
02:31,-0.07233107489470793
02:31,-0.08807910639077092
02:31,-0.10190441311115181
02:31,-0.12323750228895806
02:31,-0.15189525727888664
02:31,-0.17716535433070865
02:31,-0.19126533601904414
02:31,-0.1959348104742721
02:31,-0.19785753524995423
02:31,-0.20243545138253066
02:31,-0.20893609229078924
02:31,-0.21021790880791064
02:31,-0.1993224684123787
02:31,-0.17789782091192088
02:31,-0.15629005676616003
02:31,-0.1435634499175975
02:31,-0.13953488372093023
02:31,-0.13962644204358177
02:31,-0.13990111701153635
02:31,-0.13871085881706646
02:31,-0.13541475920161142
02:31,-0.12726606848562536
02:31,-0.10996154550448636
02:31,-0.08661417322834646
02:31,-0.06903497527925288
02:31,-0.06454861746932797
02:31,-0.06848562534334371
02:31,-0.0722395165720564
02:31,-0.07150704999084417
02:31,-0.0674784837941769
02:31,-0.06253433437099433
02:31,-0.05621681010803882
02:31,-0.04559604468046145
02:31,-0.029207104925837758
02:31,-0.01025453213697125
02:31,0.006683757553561619
02:31,0.019318806079472624
02:31,0.023072697308185314
02:31,0.014740889946896173
02:31,-0.0010071415491668192
02:31,-0.016480498077275224
02:31,-0.026735030214246475
02:31,-0.0325032045412928
02:31,-0.03735579564182384
02:31,-0.04147592016114265
02:31,-0.042757736678264054
02:31,-0.04193371177440029
02:31,-0.041750595129097234
02:31,-0.04559604468046145
02:31,-0.05347006042849295
02:31,-0.05713239333455411
02:31,-0.04422266984068852
02:31,-0.011536348654092657
02:31,0.03003112982970152
02:31,0.0637245925654642
02:31,0.08066288225599708
02:31,0.09164988097418056
02:31,0.1220472440944882
02:31,0.18925105292071048
02:31,0.27687236769822376
02:31,0.33748397729353596
02:31,0.32246841237868523
02:31,0.20582310932063724
02:31,0.01409998168833547
02:31,-0.16700238051638894
02:31,-0.2581029115546603
02:31,-0.24620032960996155
02:31,-0.1715802966489654
02:31,-0.09064273942501373
02:31,-0.04394799487273393
02:31,-0.0325032045412928
02:31,-0.0347006042849295
02:31,-0.03662332906061161
02:31,-0.035249954220838674
02:31,-0.031221388024171397
02:31,-0.024720747115912836
02:31,-0.013367515107123237
02:31,0.0020142830983336385
02:31,0.015473356528108405
02:31,0.021790880791063907
02:31,0.02252334737227614
02:31,0.022248672404321553
02:31,0.024995422083867423
02:31,0.03305255447720198
02:31,0.04678630287493133
02:31,0.06253433437099433
02:31,0.07388756637978393
02:31,0.07700054934993592
02:31,0.07370444973448087
02:31,0.0665629005676616
02:31,0.05511811023622047
02:31,0.04147592016114265
02:31,0.031129829701519868
02:31,0.026551913568943417
02:31,0.024995422083867423
02:31,0.024079838857352133
02:31,0.022798022340230727
02:31,0.021241530855154733
02:31,0.02142464750045779
02:31,0.02527009705182201
02:31,0.031312946346822926
02:31,0.03589086247939938
02:31,0.03854605383629372
02:31,0.04120124519318806
02:31,0.04431422816334005
02:31,0.046328511261673685
02:31,0.04678630287493133
02:31,0.04843435268265885
02:31,0.0545687603003113
02:31,0.06518952572788866
02:31,0.07681743270463286
02:31,0.08615638161508882
02:31,0.09128364768357444
02:31,0.0936641640725142
02:31,0.0968687053653177
02:31,0.1034609045962278
02:31,0.11325764511994141
02:31,0.12854788500274675
02:31,0.15537447353964476
02:31,0.19245559421351402
02:31,0.22688152353048893
02:31,0.247665262772386
02:31,0.2555392785204175
02:31,0.257187328328145
02:31,0.257004211682842
02:31,0.25663797839223584
02:31,0.2569126533601904
02:31,0.2581029115546603
02:31,0.25975096136238784
02:31,0.2605749862662516
02:31,0.25755356161875115
02:31,0.24565097967405236
02:31,0.22321919062442777
02:31,0.19666727705548434
02:31,0.17368613806995056
02:31,0.1554660318622963
02:31,0.14118293352865777
02:31,0.13166086797289875
02:31,0.12625892693645852
02:31,0.1220472440944882
02:31,0.1154550448635781
02:31,0.10547518769456143
02:31,0.09320637245925655
02:31,0.08102911554660319
02:31,0.07187328328145029
02:31,0.06738692547152536
02:31,0.06665445889031313
02:31,0.069401208569859
02:31,0.0763596410913752
02:31,0.08533235671122505
02:31,0.08963559787584692
02:31,0.08377586522614906
02:31,0.06811939205273759
02:31,0.04843435268265885
02:31,0.03177073796008057
02:31,0.022981138985533785
02:31,0.02353048892144296
02:31,0.031221388024171397
02:31,0.03955319538546054
02:31,0.04303241164621864
02:31,0.04431422816334005
02:31,0.04852591100531038
02:31,0.055759018494781175
02:31,0.06409082585607032
02:31,0.07388756637978393
02:31,0.0845083318073613
02:31,0.09348104742721114
02:31,0.0990661051089544
02:31,0.10108038820728804
02:31,0.09952389672221205
02:31,0.09531221388024172
02:31,0.08917780626258927
02:31,0.07956418238417873
02:31,0.06665445889031313
02:31,0.054934993590917414
02:31,0.04779344442409815
02:31,0.0438564365500824
02:31,0.03964475370811207
02:31,0.030488921442959165
02:31,0.013550631752426295
02:31,-0.00466947445522798
02:31,-0.013550631752426295
02:31,-0.010437648782274309
02:31,0.0
02:31,0.01318439846182018
02:31,0.03003112982970152
02:31,0.054843435268265885
02:31,0.0829518403222853
02:31,0.09577000549349936
02:31,0.07874015748031496
02:31,0.03946163706280901
02:31,0.0010071415491668192
02:31,-0.020966855887200146
02:31,-0.02819996337667094
02:31,-0.028840871635231642
02:31,-0.029207104925837758
02:31,-0.03351034609045962
02:31,-0.04477201977659769
02:31,-0.06106940120856986
02:31,-0.07645119941402674
02:31,-0.08780443142281634
02:31,-0.09622779710675701
02:31,-0.10300311298297016
02:31,-0.10922907892327413
02:31,-0.11737776963926021
02:31,-0.1296465848745651
02:31,-0.1457608496612342
02:31,-0.15821278154184215
02:31,-0.15592382347555392
02:31,-0.13962644204358177
02:31,-0.1233290606116096
02:31,-0.11582127815418422
02:31,-0.11527192821827505
02:31,-0.12039919428676067
02:31,-0.13257645119941402
02:31,-0.14914850759934078
02:31,-0.1624244643838125
02:31,-0.1693828969053287
02:31,-0.17258743819813221
02:31,-0.17670756271745103
02:31,-0.18622962827321005
02:31,-0.20170298480131843
02:31,-0.2160776414576085
02:31,-0.22166269913935177
02:31,-0.21772569126533603
02:31,-0.21140816700238052
02:31,-0.2094854422266984
02:31,-0.21095037538912287
02:31,-0.2091192089360923
02:31,-0.1987731184764695
02:31,-0.17798937923457242
02:31,-0.15198681560153818
02:31,-0.13138619300494414
02:31,-0.12122321919062443
02:31,-0.11820179454312398
02:31,-0.11673686138069951
02:31,-0.11316608679728987
02:31,-0.10767258743819813
02:31,-0.10382713788683391
02:31,-0.10199597143380333
02:31,-0.0984251968503937
02:31,-0.08963559787584692
02:31,-0.07690899102728438
02:31,-0.06537264237319172
02:31,-0.057681743270463284
02:31,-0.05310382713788683
02:31,-0.051181102362204724
02:31,-0.05136421900750778
02:31,-0.05127266068485625
02:31,-0.05264603552462919
02:31,-0.05887200146493316
02:31,-0.06793627540743453
02:31,-0.07480314960629922
02:31,-0.07864859915766344
02:31,-0.08176158212781542
02:31,-0.08276872367698224
02:31,-0.07306354147592016
02:31,-0.044497344808643105
02:31,-0.010437648782274309
02:31,-0.003204541292803516
02:31,-0.028474638344625526
02:31,-0.05429408533235671
02:31,-0.05063175242629555
02:31,-0.009247390587804431
02:31,0.062168101080388206
02:31,0.1435634499175975
02:31,0.20710492583775866
02:31,0.23045229811389856
02:31,0.2057315509979857
02:31,0.13230177623145944
02:31,0.02151620582310932
02:31,-0.09549533052554478
02:31,-0.19062442776048344
02:31,-0.2501373374839773
02:31,-0.26396264420435817
02:31,-0.23072697308185314
02:31,-0.16855887200146494
02:31,-0.11160959531221389
02:31,-0.08258560703167918
02:31,-0.0722395165720564
02:31,-0.06271745101629739
02:31,-0.05145577733015931
02:31,-0.041567478483794176
02:31,-0.032320087895989745
02:31,-0.0233473722761399
02:31,-0.016663614722578282
02:31,-0.013367515107123237
02:31,-0.012635048525911005
02:31,-0.013367515107123237
02:31,-0.013916865043032411
02:31,-0.012451931880607947
02:31,-0.006958432521516206
02:31,0.0009155832265152902
02:31,0.006775315876213148
02:31,0.006775315876213148
02:31,0.0011902581944698773
02:31,-0.00466947445522798
02:31,-0.004120124519318806
02:31,0.003937007874015748
02:31,0.015290239882805347
02:31,0.026002563633034242
02:31,0.03378502105841421
02:31,0.03744735396447537
02:31,0.0381798205456876
02:31,0.037905145577733015
02:31,0.037813587255081486
02:31,0.03680644570591467
02:31,0.03378502105841421
02:31,0.029207104925837758
02:31,0.02527009705182201
02:31,0.02545321369712507
02:31,0.03296099615455045
02:31,0.04806811939205274
02:31,0.06454861746932797
02:31,0.07498626625160228
02:31,0.07773301593114815
02:31,0.0763596410913752
02:31,0.07324665812122322
02:31,0.0696758835378136
02:31,0.06619666727705549
02:31,0.0637245925654642
02:31,0.06464017579197949
02:31,0.07388756637978393
02:31,0.09448818897637795
02:31,0.123054385643655
02:31,0.15253616553744737
02:31,0.17771470426661784
02:31,0.19666727705548434
02:31,0.20875297564548617
02:31,0.21406335835927487
02:31,0.21406335835927487
02:31,0.21149972532503206
02:31,0.2079289507416224
02:31,0.2047244094488189
02:31,0.20206921809192455
02:31,0.1974913019593481
02:31,0.18778611975828602
02:31,0.1706647134224501
02:31,0.14759201611426478
02:31,0.12561801867789782
02:31,0.11151803698956235
02:31,0.10556674601721297
02:31,0.10428492950009156
02:31,0.10465116279069768
02:31,0.10492583775865226
02:31,0.10272843801501556
02:31,0.0949459805896356
02:31,0.08139534883720931
02:31,0.06445705914667643
02:31,0.04513825306720381
02:31,0.02243178904962461
02:31,-0.0007324665812122322
02:31,-0.017487639626442043
02:31,-0.0233473722761399
02:31,-0.020051272660684856
02:31,-0.01117011536348654
02:31,0.0003662332906061161
02:31,0.011902581944698773
02:31,0.020417505951290972
02:31,0.0233473722761399
02:31,0.01794543123969969
02:31,0.003479216260758103
02:31,-0.015107123237502289
02:31,-0.02993957150704999
02:31,-0.03680644570591467
02:31,-0.03625709577000549
02:31,-0.030397363120307636
02:31,-0.021241530855154733
02:31,-0.012085698590001831
02:31,-0.0062259659403039735
02:31,-0.004211682841970335
02:31,-0.004486357809924922
02:31,-0.0062259659403039735
02:31,-0.009888298846365134
02:31,-0.014557773301593115
02:31,-0.0176707562717451
02:31,-0.01867789782091192
02:31,-0.019135689434169566
02:31,-0.020875297564548617
02:31,-0.023896722212049075
02:31,-0.02609412195568577
02:31,-0.024812305438564365
02:31,-0.01858633949826039
02:31,-0.009979857169016663
02:31,-0.003662332906061161
02:31,-0.0025636330342428126
02:31,-0.0059512909723493865
02:31,-0.01126167368613807
02:31,-0.014649331624244644
02:31,-0.01217725691265336
02:31,-0.0015564914850759934
02:31,0.013275956784471708
02:31,0.024537630470609778
02:31,0.028383080021973997
02:31,0.02545321369712507
02:31,0.01693828969053287
02:31,0.006409082585607032
02:31,9.155832265152902e-05
02:31,0.0017396081303790514
02:31,0.009613623878410547
02:31,0.019135689434169566
02:31,0.02627723860098883
02:31,0.02993957150704999
02:31,0.030488921442959165
02:31,0.02810840505401941
02:31,0.021973997436366965
02:31,0.01400842336568394
02:31,0.008148690715986083
02:31,0.0062259659403039735
02:31,0.006866874198864677
02:31,0.008514924006592199
02:31,0.009613623878410547
02:31,0.007874015748031496
02:31,0.0012818165171214063
02:31,-0.008514924006592199
02:31,-0.017212964658487456
02:31,-0.021882439113715436
02:31,-0.02243178904962461
