Timestamp,ECG Voltage (mV)
23:10,-0.8714521149972533
23:10,-1.0173960813037906
23:10,-1.1594945980589635
23:10,-1.2850210584142099
23:10,-1.4010254532136972
23:10,-1.5227980223402307
23:10,-1.6527192821827503
23:10,-1.796648965390954
23:10,-1.9489104559604469
23:10,-2.073338216443875
23:10,-2.1445705914667643
23:10,-2.178264054202527
23:10,-2.2063724592565466
23:10,-2.248397729353598
23:10,-2.305163889397546
23:10,-2.3618384911188426
23:10,-2.3998351950192274
23:10,-2.4026735030214246
23:10,-2.3494781175608863
23:10,-2.2152536165537446
23:10,-1.9854422266984069
23:10,-1.6820179454312396
23:10,-1.3834462552646036
23:10,-1.1808276872367698
23:10,-1.099523896722212
23:10,-1.093114814136605
23:10,-1.105566746017213
23:10,-1.110602453763047
23:10,-1.0997985716901666
23:10,-1.0703167917963743
23:10,-1.030305804797656
23:10,-0.9897454678630287
23:10,-0.9310565830433987
23:10,-0.8118476469511079
23:10,-0.616645303058048
23:10,-0.3795092473905878
23:10,-0.15537447353964476
23:10,0.008972715619849844
23:10,0.10172129646584875
23:10,0.1577549899285845
23:10,0.2167185497161692
23:10,0.28135872550814867
23:10,0.3402307269730819
23:10,0.39910272843801503
23:10,0.46273576268082767
23:10,0.5183116645303059
23:10,0.5603369346273577
23:10,0.6052920710492584
23:10,0.6837575535616187
23:10,0.8261307452847464
23:10,1.036165537447354
23:10,1.2779710675700422
23:10,1.4882805347006043
23:10,1.6140816700238052
23:10,1.6605017396081303
23:10,1.6769822376854056
23:10,1.6956601355063174
23:10,1.712506866874199
23:10,1.715619849844351
23:10,1.7012451931880608
23:10,1.665629005676616
23:10,1.6066654458890313
23:10,1.5337850210584143
23:10,1.4639260208752976
23:10,1.413294268449002
23:10,1.3875663797839224
23:10,1.3781358725508148
23:10,1.3723676982237685
23:10,1.3618384911188428
23:10,1.3448086431056583
23:10,1.3299761948361106
23:10,1.3225599707013367
23:10,1.308093755722395
23:10,1.2699139351767075
23:10,1.2141549166819263
23:10,1.1594945980589635
23:10,1.1174693279619117
23:10,1.0919245559421351
23:10,1.0843252151620582
23:10,1.0963193554294086
23:10,1.1340413843618384
23:10,1.1980406518952573
23:10,1.264786669108222
23:10,1.2990294817798937
23:10,1.2857535249954222
23:10,1.2375938472807178
23:10,1.176341329426845
23:10,1.122871268998352
23:10,1.0903680644570592
23:10,1.0741622413477385
23:10,1.0582310932063725
23:10,1.0354330708661417
23:10,1.009338948910456
23:10,0.9723493865592382
23:10,0.9036806445705915
23:10,0.8050723310748947
23:10,0.7104925837758652
23:10,0.6354147592016114
23:10,0.5558505768174327
23:10,0.4516572056399927
23:10,0.3358359274858085
23:10,0.2327412561801868
23:10,0.15262772386009887
23:10,0.09100897271561985
23:10,0.04010254532136971
23:10,-0.011902581944698773
23:10,-0.08249404870902766
23:10,-0.17643288774949642
23:10,-0.27156198498443507
23:10,-0.33675151071232373
23:10,-0.3630287493133126
23:10,-0.3662332906061161
23:10,-0.3671488738326314
23:10,-0.3773118476469511
23:10,-0.39608130379051454
23:10,-0.4147592016114265
23:10,-0.42629555026551913
23:10,-0.4277604834279436
23:10,-0.41631569309650246
23:10,-0.3932429957883172
23:10,-0.3684306903497528
23:10,-0.3529573338216444
23:10,-0.34847097601171945
23:10,-0.3480131843984618
23:10,-0.34590734297747666
23:10,-0.34087163523164254
23:10,-0.33327229445156564
23:10,-0.3226515290239883
23:10,-0.30836843069034975
23:10,-0.2915216993224684
23:10,-0.2764145760849661
23:10,-0.26707562717451017
23:10,-0.2668009522065556
23:10,-0.2766892510529207
23:10,-0.2928035158395898
23:10,-0.3111151803698956
23:10,-0.33418787767808095
23:10,-0.3638527742171763
23:10,-0.3933345541109687
23:10,-0.4147592016114265
23:10,-0.4264786669108222
23:10,-0.4316059329793078
23:10,-0.43682475737044496
23:10,-0.44772019776597693
23:10,-0.46301043764878225
23:10,-0.47555392785204176
23:10,-0.4829701519868156
23:10,-0.48754806811939205
23:10,-0.49066105108954405
23:10,-0.4912104010254532
23:10,-0.4872733931514375
23:10,-0.47573704449734483
23:10,-0.4539461637062809
23:10,-0.42373191723127634
23:10,-0.3912287126899835
23:10,-0.35945797472990293
23:10,-0.3286943783189892
23:10,-0.3024171397180004
23:10,-0.28557040835011904
23:10,-0.27678080937557226
23:10,-0.26936458524079837
23:10,-0.2573704449734481
23:10,-0.23832631386193004
23:10,-0.21140816700238052
23:10,-0.1763413294268449
23:10,-0.13541475920161142
23:10,-0.08908624793993775
23:10,-0.034059696026368796
23:10,0.023622047244094488
23:10,0.06692913385826772
23:10,0.08853689800402857
23:10,0.09613623878410547
23:10,0.0984251968503937
23:10,0.09677714704266618
23:10,0.08624793993774034
23:10,0.0659219923091009
23:10,0.04394799487273393
23:10,0.028474638344625526
23:10,0.021058414209851675
23:10,0.018403222852957334
23:10,0.015656473173411463
23:10,0.007782457425379967
23:10,-0.005768174327046328
23:10,-0.019868156015381798
23:10,-0.028749313312580113
23:10,-0.031312946346822926
23:10,-0.028474638344625526
23:10,-0.018311664530305805
23:10,-0.0021058414209851675
23:10,0.0176707562717451
23:10,0.04962461087712873
23:10,0.1041018128547885
23:10,0.17872184581578465
23:10,0.26524446072147956
23:10,0.3489287676249771
23:10,0.40111701153634866
23:10,0.3986449368247574
23:10,0.3432521516205823
23:10,0.25315876213147775
23:10,0.14878227430873467
23:10,0.05438564365500824
23:10,-9.155832265152902e-05
23:10,0.004394799487273393
23:10,0.05823109320637246
23:10,0.12818165171214063
23:10,0.18430690349752793
23:10,0.2142464750045779
23:10,0.22120490752609412
23:10,0.21616919978026003
23:10,0.2078373924189709
23:10,0.19886467679912104
23:10,0.18906793627540744
23:10,0.17624977110419338
23:10,0.15702252334737227
23:10,0.13129463468229263
23:10,0.10565830433986449
23:10,0.0886284563266801
23:10,0.08121223219190625
23:10,0.07581029115546603
23:10,0.062168101080388206
23:10,0.03378502105841421
23:10,-0.0062259659403039735
23:10,-0.049166819263871085
23:10,-0.08386742354880058
23:10,-0.09805896355978759
23:10,-0.08752975645486175
23:10,-0.0630836843069035
23:10,-0.04147592016114265
23:10,-0.028474638344625526
23:10,-0.01867789782091192
23:10,-0.0059512909723493865
23:10,0.013916865043032411
23:10,0.04229994506500641
23:10,0.07278886650796558
23:10,0.09512909723493866
23:10,0.10199597143380333
23:10,0.09467130562168101
23:10,0.08203625709577
23:10,0.07077458340963194
23:10,0.060520051272660684
23:10,0.047335652810840505
23:10,0.03195385460538363
23:10,0.02060062259659403
23:10,0.015290239882805347
23:10,0.01217725691265336
23:10,0.009705182201062076
23:10,0.010895440395531954
23:10,0.017304522981138985
23:10,0.026826588536898004
23:10,0.037081120673869254
23:10,0.047335652810840505
23:10,0.05621681010803882
23:10,0.061252517853872916
23:10,0.06189342611243362
23:10,0.06116095953122139
23:10,0.06354147592016114
23:10,0.07352133308917781
23:10,0.09540377220289324
23:10,0.1306537264237319
23:10,0.17469327961911738
23:10,0.21882439113715438
23:10,0.2570957700054935
23:10,0.28529573338216446
23:10,0.30168467313678815
23:10,0.3087346639809559
23:10,0.3109320637245926
23:10,0.31065738875663795
23:10,0.3081853140450467
23:10,0.30424830617103094
23:10,0.30067753158762134
23:10,0.29738143197216627
23:10,0.29225416590368064
23:10,0.28538729170481597
23:10,0.2776963926020875
23:10,0.27018861014466217
23:10,0.2657022523347372
23:10,0.2658853689800403
23:10,0.2687236769822377
23:10,0.27018861014466217
23:10,0.2678996520783739
23:10,0.26231459439663063
23:10,0.25508148690715987
23:10,0.24473539644753708
23:10,0.22926203991942867
23:10,0.2106757004211683
23:10,0.19263871085881706
23:10,0.17560886284563268
23:10,0.15693096502472076
23:10,0.13605566746017214
23:10,0.11243362021607764
23:10,0.0829518403222853
23:10,0.04788500274674968
23:10,0.014649331624244644
23:10,-0.009064273942501373
23:10,-0.02517853872917048
23:10,-0.04220838674235488
23:10,-0.06683757553561619
23:10,-0.09815052188243911
23:10,-0.12891411829335286
23:10,-0.15152902398828053
23:10,-0.16334004761032778
23:10,-0.1690166636147226
23:10,-0.1781724958798755
23:10,-0.19895623512177257
23:10,-0.22907892327412563
23:10,-0.25856070316791796
23:10,-0.28383080021974
23:10,-0.30845998901300126
23:10,-0.3304339864493682
23:10,-0.3432521516205823
23:10,-0.34654825123603733
23:10,-0.34526643471891594
23:10,-0.3435268265885369
23:10,-0.34490020142830985
23:10,-0.356344991759751
23:10,-0.3826222303607398
23:10,-0.4169566013550632
23:10,-0.44533968137703717
23:10,-0.4623695293902216
23:10,-0.47427211133492037
23:10,-0.48525911005310385
23:10,-0.49386559238234756
23:10,-0.4980772752243179
23:10,-0.49633766709393884
23:10,-0.4891961179271196
23:10,-0.4794909357260575
23:10,-0.46896172862113167
23:10,-0.45852407983885735
23:10,-0.4501922724775682
23:10,-0.44442409815052186
23:10,-0.4436000732466581
23:10,-0.45348837209302323
23:10,-0.4761032777879509
23:10,-0.5030214246475004
23:10,-0.5249038637612159
23:10,-0.5417505951290973
23:10,-0.5563083684306903
23:10,-0.5667460172129647
23:10,-0.5732466581212232
23:10,-0.5803882072880425
23:10,-0.5889946896172862
23:10,-0.5975096136238784
23:10,-0.6066654458890313
23:10,-0.6177440029298663
23:10,-0.6298297015198682
23:10,-0.6429225416590368
23:10,-0.6570225233473723
23:10,-0.6705731550997985
23:10,-0.6843069034975279
23:10,-0.700238051638894
23:10,-0.7142464750045779
23:10,-0.7150704999084416
23:10,-0.6914484526643472
23:10,-0.6408167002380516
23:10,-0.5731550997985717
23:10,-0.5054934993590917
23:10,-0.46044680461453946
23:10,-0.4728071781724959
23:10,-0.5610694012085699
23:10,-0.6980406518952573
23:10,-0.8381248855520966
23:10,-0.9439663065372642
23:10,-0.9872733931514375
23:10,-0.9707013367515107
23:10,-0.932155282915217
23:10,-0.9065189525727889
23:10,-0.9020325947628639
23:10,-0.9075260941219557
23:10,-0.9059696026368796
23:10,-0.8898553378502105
23:10,-0.8655923823475554
23:10,-0.8411463101995972
23:10,-0.8220106207654275
23:10,-0.8096502472074711
23:10,-0.8005859732649698
23:10,-0.7916132576451199
23:10,-0.7839223585423915
23:10,-0.7803515839589819
23:10,-0.7819996337667094
23:10,-0.7872184581578465
23:10,-0.791796374290423
23:10,-0.7924372825489837
23:10,-0.7906976744186046
23:10,-0.7897820911920893
23:10,-0.7906976744186046
23:10,-0.7904229994506501
23:10,-0.7839223585423915
23:10,-0.7668925105292071
23:10,-0.7415308551547336
23:10,-0.7168101080388207
23:10,-0.7020692180919246
23:10,-0.6984068851858634
23:10,-0.6983153268632118
23:10,-0.6941036440212416
23:10,-0.6843984618201795
23:10,-0.6724043215528291
23:10,-0.6607764145760849
23:10,-0.6479582494048709
23:10,-0.6268082768723677
23:10,-0.5929316974913019
23:10,-0.5523713605566746
23:10,-0.5131843984618202
23:10,-0.469877311847647
23:10,-0.40981505218824393
23:10,-0.33730086064823295
23:10,-0.2719282182750412
23:10,-0.2189159494598059
23:10,-0.16727705548434352
23:10,-0.11527192821827505
23:10,-0.07425379967039004
23:10,-0.04770188610144662
23:10,-0.02627723860098883
23:10,0.0019227247756821095
23:10,0.04706097784288592
23:10,0.11005310382713789
23:10,0.17432704632851126
23:10,0.2169932246841238
23:10,0.23264969785753525
23:10,0.23319904779344441
23:10,0.22981138985533786
23:10,0.22395165720564
23:10,0.2125984251968504
23:10,0.1959348104742721
23:10,0.17771470426661784
23:10,0.16279069767441862
23:10,0.1533601904413111
23:10,0.14548617469327962
23:10,0.1302874931331258
23:10,0.10565830433986449
23:10,0.0807544405786486
23:10,0.0659219923091009
23:10,0.062442776048342793
23:10,0.0672038088262223
23:10,0.0785570408350119
23:10,0.09238234755539279
23:10,0.10309467130562168
23:10,0.11078557040835012
23:10,0.12223036073979125
23:10,0.14374656656290058
23:10,0.17368613806995056
23:10,0.20078740157480315
23:10,0.21497894158579015
23:10,0.21681010803882073
23:10,0.21241530855154733
23:10,0.206647134224501
23:10,0.20289324299578831
23:10,0.2056399926753342
23:10,0.2195568577183666
23:10,0.24400292986632485
23:10,0.27385094305072333
23:10,0.30498077275224317
23:10,0.3326313861930049
23:10,0.3507599340780077
23:10,0.36220472440944884
23:10,0.3792345724226332
23:10,0.41283647683574437
23:10,0.465390954037722
23:10,0.5281084050540195
23:10,0.585149240065922
23:10,0.6231459439663065
23:10,0.6397180003662333
23:10,0.6410913752060062
23:10,0.6354147592016114
23:10,0.6303790514557773
23:10,0.6350485259110054
23:10,0.6524446072147958
23:10,0.673411463101996
23:10,0.687603003112983
23:10,0.6950192272477568
23:10,0.7029848013184399
23:10,0.7172678996520784
23:10,0.7375938472807179
23:10,0.761856802783373
23:10,0.7890496246108771
23:10,0.8151437465665629
23:10,0.8335469694195202
23:10,0.8427028016846732
23:10,0.8463651345907343
23:10,0.8460904596227797
23:10,0.8404138436183849
23:10,0.8313495696758836
23:10,0.8247573704449734
23:10,0.8225599707013368
23:10,0.8200878959897455
23:10,0.8126716718549716
23:10,0.8018677897820912
23:10,0.7938106573887567
23:10,0.7912470243545138
23:10,0.791796374290423
23:10,0.7921626075810291
23:10,0.7906976744186046
23:10,0.7874015748031497
23:10,0.7836476835744369
23:10,0.7826405420252701
23:10,0.7904229994506501
23:10,0.8103827137886834
23:10,0.8352865775498993
23:10,0.8553378502105842
23:10,0.8690715986083135
23:10,0.8777696392602088
23:10,0.8811572971983154
23:10,0.8812488555209669
23:10,0.8806079472624061
23:10,0.8795092473905878
23:10,0.8774949642922542
23:10,0.8758469144845267
23:10,0.8817066471342245
23:10,0.9013916865043032
23:10,0.9235488005859732
23:10,0.9218091924555942
23:10,0.8896722212049075
23:10,0.8541475920161142
23:10,0.8442592931697491
23:10,0.8674235488005859
23:10,0.9219007507782457
23:10,0.9929500091558323
23:10,1.0420252700970518
23:10,1.0402856619666727
23:10,0.9934993590917415
23:10,0.9175059512909723
23:10,0.8210034792162607
23:10,0.7133308917780626
23:10,0.6073979124702436
23:10,0.5078740157480315
23:10,0.4155832265152902
23:10,0.3441677348470976
23:10,0.31047427211133494
23:10,0.31248855520966856
23:10,0.33116645303058045
23:10,0.34682292620399197
23:10,0.35259110053103826
23:10,0.3511261673686138
23:10,0.34490020142830985
23:10,0.33199047793444425
23:10,0.31047427211133494
23:10,0.2830067753158762
23:10,0.2568210950375389
23:10,0.2369529390221571
23:10,0.22157114081670023
23:10,0.20554843435268266
23:10,0.18549716169199781
23:10,0.16352316425563085
23:10,0.1447537081120674
23:10,0.1283647683574437
23:10,0.10730635414759201
23:10,0.08139534883720931
23:10,0.060428492950009155
23:10,0.048342794360007324
23:10,0.037905145577733015
23:10,0.020875297564548617
23:10,-0.003570774583409632
23:10,-0.02719282182750412
23:10,-0.04184215345174876
23:10,-0.04788500274674968
23:10,-0.04989928584508332
23:10,-0.04989928584508332
23:10,-0.04843435268265885
23:10,-0.04843435268265885
23:10,-0.052829152169932246
23:10,-0.06061160959531221
23:10,-0.06866874198864677
23:10,-0.07480314960629922
23:10,-0.07672587438198132
23:10,-0.07342977476652628
23:10,-0.06683757553561619
23:10,-0.05997070133675151
23:10,-0.055850576817432704
23:10,-0.05447720197765977
23:10,-0.052096685588720014
23:10,-0.04934993590917414
23:10,-0.05072331074894708
23:10,-0.05649148507599341
23:10,-0.06537264237319172
23:10,-0.07736678264054203
23:10,-0.0914667643288775
23:10,-0.1041018128547885
23:10,-0.11151803698956235
23:10,-0.1141732283464567
23:10,-0.11655374473539645
23:10,-0.12094854422266985
23:10,-0.12607581029115547
23:10,-0.12909723493865594
23:10,-0.13138619300494414
23:10,-0.1409998168833547
23:10,-0.16993224684123787
23:10,-0.22257828236586705
23:10,-0.28218275041201246
23:10,-0.3220106207654276
23:10,-0.33418787767808095
23:10,-0.3334554110968687
23:10,-0.3368430690349753
23:10,-0.3499359091741439
23:10,-0.3680644570591467
23:10,-0.3834462552646036
23:10,-0.39150338765793813
23:10,-0.39351767075627175
23:10,-0.39287676249771103
23:10,-0.3917780626258927
23:10,-0.3901300128181652
23:10,-0.38784105475187697
23:10,-0.3874748214612708
23:10,-0.39598974546786303
23:10,-0.4211682841970335
23:10,-0.46301043764878225
23:10,-0.506409082585607
23:10,-0.5328694378318989
23:10,-0.5415674784837942
23:10,-0.5485259110053103
23:10,-0.5669291338582677
23:10,-0.5914667643288775
23:10,-0.6036440212415308
23:10,-0.5929316974913019
23:10,-0.5701336751510713
23:10,-0.5529207104925837
23:10,-0.547427211133492
23:10,-0.5482512360373558
23:10,-0.5487090276506135
23:10,-0.5470609778428859
23:10,-0.5455044863578099
23:10,-0.5465116279069767
23:10,-0.5481596777147043
23:10,-0.5464200695843252
23:10,-0.5406518952572789
23:10,-0.5321369712506867
23:10,-0.5235304889214429
23:10,-0.5159311481413661
23:10,-0.5050357077458341
23:10,-0.490477934444241
23:10,-0.4797656106940121
23:10,-0.47646951107855706
23:10,-0.4760117194652994
23:10,-0.47427211133492037
23:10,-0.4687786119758286
23:10,-0.4588903131294635
23:10,-0.4501922724775682
23:10,-0.4491851309284014
23:10,-0.4533968137703717
23:10,-0.45623512177256914
23:10,-0.45531953854605384
23:10,-0.4511078557040835
23:10,-0.44112799853506685
23:10,-0.42071049258377585
23:10,-0.3927852041750595
23:10,-0.36797289873649514
23:10,-0.3530488921442959
23:10,-0.34938655923823475
23:10,-0.35689434169566014
23:10,-0.37090276506134406
23:10,-0.3844533968137704
23:10,-0.3924189708844534
23:10,-0.39150338765793813
23:10,-0.37557223951657204
23:10,-0.3348287859366416
23:10,-0.2700970518220106
23:10,-0.20518220106207655
23:10,-0.1668192638710859
23:10,-0.15409265702252334
23:10,-0.14521149972532504
23:10,-0.124610877128731
23:10,-0.09064273942501373
23:10,-0.05365317707379601
23:10,-0.027833730086064823
23:10,-0.016297381431972166
23:10,-0.010895440395531954
23:10,-0.00375389122871269
23:10,0.010803882072880425
23:10,0.03552462918879326
23:10,0.06326680095220656
23:10,0.08350119025819447
23:10,0.09860831349569676
23:10,0.12598425196850394
23:10,0.18091924555942135
23:10,0.25874381981322103
23:10,0.33116645303058045
23:10,0.3734663980955869
23:10,0.3873832631386193
23:10,0.38536898004028564
23:10,0.37218458157846546
23:10,0.36797289873649514
23:10,0.414850759934078
23:10,0.519044131111518
23:10,0.6335835927485809
23:10,0.7170847830067754
23:10,0.7562717451016298
23:10,0.7536165537447354
23:10,0.726881523530489
23:10,0.6857718366599523
23:10,0.6214063358359275
23:10,0.5289324299578831
23:10,0.4126533601904413
23:10,0.2830067753158762
23:10,0.16828419703351036
23:10,0.10272843801501556
23:10,0.09457974729902949
23:10,0.12021607764145761
23:10,0.15180369895623513
23:10,0.17908807910639077
23:10,0.19978026002563634
23:10,0.2069218091924556
23:10,0.20243545138253066
23:10,0.19694195202343892
23:10,0.1949276689251053
23:10,0.19410364402124153
23:10,0.19126533601904414
23:10,0.18320820362570958
23:10,0.16819263871085882
23:10,0.14823292437282548
23:10,0.13129463468229263
23:10,0.1258926936458524
23:10,0.13349203442592933
23:10,0.14457059146676432
23:10,0.14841604101812855
23:10,0.14750045779161325
23:10,0.15088811572971983
23:10,0.16105108954403954
23:10,0.1744186046511628
23:10,0.1842153451748764
23:10,0.1830250869804065
23:10,0.17267899652078375
23:10,0.16260758102911554
23:10,0.15857901483244827
23:10,0.16004394799487273
23:10,0.16736861380699505
23:10,0.1823841787218458
23:10,0.2012451931880608
23:10,0.2148873832631386
23:10,0.21964841604101812
23:10,0.21900750778245742
23:10,0.21635231642556307
23:10,0.21241530855154733
23:10,0.20893609229078924
23:10,0.2104010254532137
23:10,0.2191906244277605
23:10,0.22852957333821644
23:10,0.22917048159677714
23:10,0.22257828236586705
23:10,0.2186412744918513
23:10,0.22038088262223035
23:10,0.22257828236586705
23:10,0.22212049075260942
23:10,0.22028932429957884
23:10,0.22074711591283647
23:10,0.22266984068851858
23:10,0.22230360739791247
23:10,0.2191906244277605
23:10,0.21525361655374473
23:10,0.21030946713056217
23:10,0.20271012635048527
23:10,0.1886101446621498
23:10,0.16233290606116096
23:10,0.12232191906244277
23:10,0.07324665812122322
23:10,0.02636879692364036
23:10,-0.004761032777879509
23:10,-0.017029848013184398
23:10,-0.01867789782091192
23:10,-0.01968503937007874
23:10,-0.02728438015015565
23:10,-0.04587071964841604
23:10,-0.07260574986266252
23:10,-0.09705182201062076
23:10,-0.1138985533785021
23:10,-0.13037905145577733
23:10,-0.15290239882805348
23:10,-0.1759750961362388
23:10,-0.1898919611792712
23:10,-0.19327961911737776
23:10,-0.19199780260025637
23:10,-0.1905328694378319
23:10,-0.1898919611792712
23:10,-0.18915949459805897
23:10,-0.18760300311298297
23:10,-0.1864127449185131
23:10,-0.18980040285661967
23:10,-0.20225233473722762
23:10,-0.22285295733382166
23:10,-0.24299578831715804
23:10,-0.25526460355246294
23:10,-0.2592016114264787
23:10,-0.25883537813587254
23:10,-0.257187328328145
23:10,-0.2559970701336752
23:10,-0.25563083684306903
23:10,-0.2548983702618568
23:10,-0.2545321369712507
23:10,-0.25627174510162976
23:10,-0.2600256363303424
23:10,-0.2636879692364036
23:10,-0.26506134407617654
23:10,-0.2631386193004944
23:10,-0.2600256363303424
23:10,-0.25727888665079657
23:10,-0.2549899285845083
23:10,-0.25325032045412926
23:10,-0.2517853872917048
23:10,-0.24812305438564367
23:10,-0.24061527192821827
23:10,-0.2309100897271562
23:10,-0.22312763230177624
23:10,-0.21973997436366965
23:10,-0.21992309100897273
23:10,-0.2213880241713972
23:10,-0.22349386559238235
23:10,-0.22889580662882256
23:10,-0.23951657205639992
23:10,-0.24839772935359825
23:10,-0.24372825489837027
23:10,-0.2262406152719282
23:10,-0.20985167551730452
23:10,-0.20280168467313678
23:10,-0.20225233473722762
23:10,-0.20371726789965208
23:10,-0.20701336751510713
23:10,-0.21314777513275956
23:10,-0.22120490752609412
23:10,-0.22495879875480682
23:10,-0.21571140816700238
23:10,-0.19135689434169567
23:10,-0.1634316059329793
23:10,-0.1453946163706281
23:10,-0.13926020875297565
23:10,-0.13834462552646035
23:10,-0.13742904229994507
23:10,-0.13633034242812672
23:10,-0.13605566746017214
23:10,-0.13678813404138437
23:10,-0.1375206006225966
23:10,-0.13523164255630837
23:10,-0.12699139351767075
23:10,-0.11371543673319905
23:10,-0.09970701336751511
23:10,-0.08853689800402857
23:10,-0.08112067386925471
23:10,-0.0788317158029665
23:10,-0.08762131477751328
23:10,-0.11371543673319905
23:10,-0.14988097418055302
23:10,-0.1757004211682842
23:10,-0.1757004211682842
23:10,-0.15024720747115913
23:10,-0.11453946163706281
23:10,-0.08899468961728621
23:10,-0.08084599890130013
23:10,-0.08304339864493683
23:10,-0.08789598974546786
23:10,-0.09219923091008973
23:10,-0.0958615638161509
23:10,-0.10236220472440945
23:10,-0.11563816150888116
23:10,-0.1327595678447171
23:10,-0.1438381248855521
23:10,-0.14072514191540011
23:10,-0.12158945248123054
23:10,-0.08890313129463469
23:10,-0.05319538546053836
23:10,-0.03195385460538363
23:10,-0.03579930415674785
23:10,-0.05722395165720564
23:10,-0.07031679179637429
23:10,-0.05273759384728072
23:10,-0.009247390587804431
23:10,0.037081120673869254
23:10,0.07269730818531404
23:10,0.10684856253433438
23:10,0.16260758102911554
23:10,0.25434902032594764
23:10,0.3684306903497528
23:10,0.4644753708112067
23:10,0.4955136421900751
23:10,0.4382896905328694
23:10,0.31679179637429045
23:10,0.18247573704449735
23:10,0.07324665812122322
23:10,0.01034609045962278
23:10,0.005768174327046328
23:10,0.04797656106940121
23:10,0.10401025453213697
23:10,0.14804980772752244
23:10,0.18055301226881523
23:10,0.2147958249404871
23:10,0.25123603735579564
23:10,0.27577366782640544
23:10,0.2819080754440579
23:10,0.2751327595678447
23:10,0.2581029115546603
23:10,0.22697308185314044
23:10,0.18842702801684674
23:10,0.1602270646401758
23:10,0.1507965574070683
23:10,0.15354330708661418
23:10,0.15940303973631204
23:10,0.16388939754623696
23:10,0.16572056399926754
23:10,0.16553744735396447
23:10,0.16324848928767624
23:10,0.15848745650979673
23:10,0.1505218824391137
23:10,0.1375206006225966
23:10,0.11893426112433621
23:10,0.0990661051089544
23:10,0.08542391503387659
23:10,0.08203625709577
23:10,0.08478300677531588
23:10,0.08414209851675518
23:10,0.07361289141182933
23:10,0.057498626625160226
23:10,0.046328511261673685
23:10,0.04413111151803699
23:10,0.0460538362937191
23:10,0.04770188610144662
23:10,0.04843435268265885
23:10,0.049258377586522614
23:10,0.05081486907159861
23:10,0.05273759384728072
23:10,0.05438564365500824
23:10,0.05639992675334188
23:10,0.06116095953122139
23:10,0.07114081670023806
23:10,0.08734663980955869
23:10,0.10867972898736496
23:10,0.12982970151986817
23:10,0.14338033327229446
23:10,0.1485075993407801
23:10,0.15162058231093206
23:10,0.15757187328328146
23:10,0.16819263871085882
23:10,0.18540560336934628
23:10,0.21058414209851675
23:10,0.23640358908624795
23:10,0.24720747115912836
23:10,0.2337483977293536
23:10,0.20371726789965208
23:10,0.17148873832631387
23:10,0.14328877494964293
23:10,0.11646218641274492
23:10,0.08716352316425563
23:10,0.05704083501190258
23:10,0.03305255447720198
23:10,0.019135689434169566
23:10,0.011627906976744186
23:10,0.0062259659403039735
23:10,0.0025636330342428126
23:10,-0.0006409082585607032
23:10,-0.006409082585607032
23:10,-0.014740889946896173
23:10,-0.022889580662882256
23:10,-0.02911554660318623
23:10,-0.0353415125434902
23:10,-0.044405786485991576
23:10,-0.05704083501190258
23:10,-0.07123237502288958
23:10,-0.08377586522614906
23:10,-0.09284013916865043
23:10,-0.10007324665812123
23:10,-0.10794726240615272
23:10,-0.11627906976744186
23:10,-0.12406152719282183
23:10,-0.12946346822926205
23:10,-0.1296465848745651
23:10,-0.12543490203259478
23:10,-0.12158945248123054
23:10,-0.1204907526094122
23:10,-0.11966672770554844
23:10,-0.11435634499175976
23:10,-0.1025453213697125
23:10,-0.09091741439296833
23:10,-0.08954403955319538
23:10,-0.09924922175425746
23:10,-0.11151803698956235
23:10,-0.1217725691265336
23:10,-0.13166086797289875
23:10,-0.14127449185130928
23:10,-0.14777513275956786
23:10,-0.14942318256729537
23:10,-0.14832448269547702
23:10,-0.14704266617835562
23:10,-0.1420069584325215
23:10,-0.12552646035524628
23:10,-0.09760117194652994
23:10,-0.07049990844167735
23:10,-0.05594213514008423
23:10,-0.05356161875114448
23:10,-0.054843435268265885
23:10,-0.051181102362204724
23:10,-0.0381798205456876
23:10,-0.020142830983336385
23:10,-0.005768174327046328
23:10,0.0023805163889397546
23:10,0.009888298846365134
23:10,0.02060062259659403
23:10,0.03341878776780809
23:10,0.04229994506500641
23:10,0.043581761582127815
23:10,0.042574620032960996
23:10,0.04751876945614356
23:10,0.05813953488372093
23:10,0.06894341695660136
23:10,0.07654275773667826
23:10,0.08194469877311848
23:10,0.08752975645486175
23:10,0.09439663065372643
23:10,0.1012635048525911
23:10,0.10584142098516755
23:10,0.10712323750228896
23:10,0.10675700421168284
23:10,0.10639077092107672
23:10,0.10666544588903132
23:10,0.10684856253433438
23:10,0.1050173960813038
23:10,0.09952389672221205
23:10,0.08945248123054386
23:10,0.07581029115546603
23:10,0.05887200146493316
23:10,0.036898004028566196
23:10,0.012268815235304889
23:10,-0.006958432521516206
23:10,-0.016205823109320637
23:10,-0.018494781175608863
23:10,-0.02151620582310932
23:10,-0.031404504669474455
23:10,-0.048251236037355795
23:10,-0.06509796740523714
23:10,-0.07498626625160228
23:10,-0.07819080754440579
23:10,-0.07819080754440579
23:10,-0.07608496612342062
23:10,-0.07004211682841971
23:10,-0.061344076176524445
23:10,-0.05823109320637246
23:10,-0.06628822559970701
23:10,-0.0788317158029665
23:10,-0.08743819813221022
23:10,-0.09375572239516572
23:10,-0.10382713788683391
23:10,-0.11682841970335103
23:10,-0.12625892693645852
23:10,-0.12772386009888298
23:10,-0.12140633583592748
23:10,-0.11014466214978942
23:10,-0.09824208020509065
23:10,-0.08945248123054386
23:10,-0.08606482329243728
23:10,-0.09091741439296833
23:10,-0.10675700421168284
23:10,-0.13083684306903498
23:10,-0.15345174876396264
23:10,-0.16819263871085882
23:10,-0.17945431239699688
23:10,-0.19401208569859
23:10,-0.21030946713056217
23:10,-0.22321919062442777
23:10,-0.23026918146859549
23:10,-0.23008606482329244
23:10,-0.21946529939571507
23:10,-0.19804065189525727
23:10,-0.17460172129646584
23:10,-0.16260758102911554
23:10,-0.16617835561252517
23:10,-0.16984068851858633
23:10,-0.152993957150705
23:10,-0.1106940120856986
23:10,-0.049166819263871085
23:10,0.019044131111518037
23:10,0.07828236586705732
23:10,0.11325764511994141
23:10,0.10611609595312214
23:10,0.04596227797106757
23:10,-0.0574070683025087
23:10,-0.1845815784654825
23:10,-0.3081853140450467
23:10,-0.3858267716535433
23:10,-0.3889397546236953
23:10,-0.33318073612891413
23:10,-0.26103277787950924
23:10,-0.20646401757919794
23:10,-0.181377037172679
23:10,-0.17753158762131477
23:10,-0.17954587071964842
23:10,-0.17954587071964842
23:10,-0.1760666544588903
23:10,-0.16837575535616187
23:10,-0.15848745650979673
23:10,-0.15125434902032595
23:10,-0.14905694927668925
23:10,-0.1507965574070683
23:10,-0.15500824024903864
23:10,-0.16059329793078192
23:10,-0.16636147225782824
23:10,-0.17231276323017763
23:10,-0.17707379600805714
23:10,-0.17798937923457242
23:10,-0.17396081303790514
23:10,-0.16892510529207105
23:10,-0.16865043032411647
23:10,-0.17341146310199598
23:10,-0.17890496246108772
23:10,-0.18174327046328512
23:10,-0.18229262039919428
23:10,-0.18192638710858816
23:10,-0.18119392052737593
23:10,-0.1803698956235122
23:10,-0.179820545687603
23:10,-0.179820545687603
23:10,-0.18064457059146677
23:10,-0.18210950375389123
23:10,-0.18412378685222486
23:10,-0.18604651162790697
23:10,-0.18531404504669474
23:10,-0.17927119575169384
23:10,-0.1678264054202527
23:10,-0.15482512360373557
23:10,-0.14429591649880974
23:10,-0.1375206006225966
23:10,-0.13111151803698956
23:10,-0.12122321919062443
23:10,-0.10785570408350119
23:10,-0.09302325581395349
23:10,-0.07809924922175426
23:10,-0.06702069218091924
23:10,-0.062168101080388206
23:10,-0.0602453763047061
23:10,-0.0574070683025087
23:10,-0.05539278520417506
23:10,-0.057498626625160226
23:10,-0.06418238417872185
23:10,-0.07361289141182933
23:10,-0.08505768174327047
23:10,-0.10181285478850027
23:10,-0.12818165171214063
23:10,-0.15848745650979673
23:10,-0.17954587071964842
23:10,-0.1873283281450284
23:10,-0.18879326130745286
23:10,-0.19071598608313495
23:10,-0.19602636879692364
23:10,-0.2062809009338949
23:10,-0.222395165720564
23:10,-0.24327046328511262
23:10,-0.26387108588170666
23:10,-0.2785204175059513
23:10,-0.28538729170481597
23:10,-0.2883171580296649
23:10,-0.29188793261307455
23:10,-0.29637429042299945
23:10,-0.29957883171580296
23:10,-0.29893792345724224
23:10,-0.2906061160959531
23:10,-0.26963926020875295
23:10,-0.23429774766526276
23:10,-0.19135689434169567
23:10,-0.15528291521699322
23:10,-0.13514008423365684
23:10,-0.12827321003479217
23:10,-0.1220472440944882
23:10,-0.10135506317524264
23:10,-0.06290056766160045
23:10,-0.0205090642739425
23:10,0.011719465299395715
23:10,0.03378502105841421
23:10,0.05704083501190258
23:10,0.09265702252334737
23:10,0.1377952755905512
23:10,0.17533418787767807
23:10,0.195568577183666
23:10,0.20893609229078924
23:10,0.23246658121223218
23:10,0.2710126350485259
23:10,0.31239699688701705
23:10,0.3434352682658854
23:10,0.36458524079838855
23:10,0.3832631386193005
23:10,0.4005676616004395
23:10,0.41219556857718365
23:10,0.4167734847097601
23:10,0.41796374290423
23:10,0.421076725874382
23:10,0.4312396996887017
23:10,0.44881889763779526
23:10,0.46676432887749497
23:10,0.47784288591832996
23:10,0.48022340230726973
23:10,0.47555392785204176
23:10,0.46383446255264604
23:10,0.44772019776597693
23:10,0.4334370994323384
23:10,0.42574620032960997
23:10,0.42418970884453394
23:10,0.4264786669108222
23:10,0.4329793078190807
23:10,0.44533968137703717
23:10,0.46291887932613074
23:10,0.4816883354696942
23:10,0.4967954587071965
23:10,0.507599340780077
23:10,0.5173045229811389
23:10,0.5265519135689434
23:10,0.5325032045412929
23:10,0.5347006042849295
23:10,0.5355246291887933
23:10,0.5381798205456876
23:10,0.544131111518037
23:10,0.55209668558872
23:10,0.5592382347555392
23:10,0.5629005676616005
23:10,0.5580479765610694
23:10,0.5376304706097784
23:10,0.5029298663248489
23:10,0.46795458707196486
23:10,0.44314228163340047
23:10,0.42483061710309467
23:10,0.40679362754074344
23:10,0.3902215711408167
23:10,0.3779527559055118
23:10,0.3683391320271013
23:10,0.3577183665995239
23:10,0.3436183849111884
23:10,0.32668009522065555
23:10,0.3097418055301227
23:10,0.2965574070683025
23:10,0.2894158579014832
23:10,0.2873100164804981
23:10,0.2873100164804981
23:10,0.2876762497711042
23:10,0.28785936641640725
23:10,0.28795092473905876
23:10,0.2876762497711042
23:10,0.28666910822193736
23:10,0.28456326680095223
23:10,0.2819080754440579
23:10,0.2798937923457242
23:10,0.27842885918329974
23:10,0.27485808459989014
23:10,0.2658853689800403
23:10,0.2529756454861747
23:10,0.2418970884453397
23:10,0.2359457974729903
23:10,0.2331074894707929
23:10,0.22926203991942867
23:10,0.22193737410730635
23:10,0.20902765061344075
23:10,0.1911737776963926
23:10,0.17368613806995056
23:10,0.16132576451199415
23:10,0.1549166819263871
23:10,0.1507965574070683
23:10,0.1447537081120674
23:10,0.13697125068668742
23:10,0.1315693096502472
23:10,0.12992125984251968
23:10,0.126167368613807
23:10,0.11930049441494232
23:10,0.1296465848745651
23:10,0.17359457974729903
23:10,0.2267899652078374
23:10,0.25965940303973634
23:10,0.2794360007324666
23:10,0.29884636513459073
23:10,0.31459439663065375
23:10,0.3205456876030031
23:10,0.2993957150704999
23:10,0.22852957333821644
23:10,0.11078557040835012
23:10,-0.031221388024171397
23:10,-0.1693828969053287
23:10,-0.2658853689800403
23:10,-0.29188793261307455
23:10,-0.2555392785204175
23:10,-0.1949276689251053
23:10,-0.1438381248855521
23:10,-0.1141732283464567
23:10,-0.10446804614539462
23:10,-0.10813037905145578
23:10,-0.11673686138069951
23:10,-0.12598425196850394
23:10,-0.13788683391320272
23:10,-0.15226149056949276
23:10,-0.16425563083684308
23:10,-0.17194652993957152
23:10,-0.17927119575169384
23:10,-0.18604651162790697
23:10,-0.18787767808093755
23:10,-0.1835744369163157
23:10,-0.17936275407434535
23:10,-0.1848562534334371
23:10,-0.19886467679912104
23:10,-0.20838674235488006
23:10,-0.2075627174510163
23:10,-0.20280168467313678
23:10,-0.20005493499359092
23:10,-0.19959714338033327
23:10,-0.19978026002563634
23:10,-0.19987181834828785
23:10,-0.20005493499359092
23:10,-0.20005493499359092
23:10,-0.1996887017029848
23:10,-0.19895623512177257
23:10,-0.19794909357260576
23:10,-0.19511078557040834
23:10,-0.18760300311298297
23:10,-0.1738692547152536
23:10,-0.15665629005676615
23:10,-0.13999267533418788
23:10,-0.126167368613807
23:10,-0.11737776963926021
23:10,-0.1126167368613807
23:10,-0.10703167917963743
23:10,-0.09723493865592382
23:10,-0.083592748580846
23:10,-0.06738692547152536
23:10,-0.0517304522981139
23:10,-0.040743453579930415
23:10,-0.03497527925288409
23:10,-0.030305804797656107
23:10,-0.023805163889397546
23:10,-0.017029848013184398
23:10,-0.011719465299395715
23:10,-0.007416224134773851
23:10,-0.003479216260758103
23:10,-0.0003662332906061161
23:10,0.0014649331624244644
23:10,0.0018311664530305805
23:10,-0.0024720747115912836
23:10,-0.014832448269547702
23:10,-0.031129829701519868
23:10,-0.042666178355612525
23:10,-0.048251236037355795
23:10,-0.05795641823841787
23:10,-0.08148690715986083
23:10,-0.1148141366050174
23:10,-0.1429225416590368
23:10,-0.1564731734114631
23:10,-0.15949459805896357
23:10,-0.16095953122138804
23:10,-0.16791796374290424
23:10,-0.18101080388207288
23:10,-0.19446987731184764
23:10,-0.20234389305987915
23:10,-0.20527375938472808
23:10,-0.20856985900018313
23:10,-0.21552829152169933
23:10,-0.22422633217359458
23:10,-0.23072697308185314
23:10,-0.2315509979857169
23:10,-0.22450100714154916
23:10,-0.2104010254532137
23:10,-0.19501922724775683
23:10,-0.18503937007874016
23:10,-0.18174327046328512
23:10,-0.1820179454312397
23:10,-0.1826588536898004
23:10,-0.182933528657755
23:10,-0.1839406702069218
23:10,-0.1870536531770738
23:10,-0.19126533601904414
23:10,-0.19446987731184764
23:10,-0.19639260208752976
23:10,-0.198681560153818
23:10,-0.20142830983336385
23:10,-0.20179454312396997
23:10,-0.19758286028199964
23:10,-0.18998351950192272
23:10,-0.18220106207654277
23:10,-0.17524262955502656
23:10,-0.16819263871085882
23:10,-0.16095953122138804
23:10,-0.15509979857169018
23:10,-0.15162058231093206
23:10,-0.1507965574070683
23:10,-0.15180369895623513
23:10,-0.1533601904413111
23:10,-0.15445889031312945
23:10,-0.15473356528108406
23:10,-0.15381798205456876
23:10,-0.15162058231093206
23:10,-0.14841604101812855
23:10,-0.1451199414026735
23:10,-0.14283098333638528
23:10,-0.14182384178721846
23:10,-0.1420069584325215
23:10,-0.14457059146676432
23:10,-0.14997253250320455
23:10,-0.15400109869987183
23:10,-0.1501556491485076
23:10,-0.13742904229994507
23:10,-0.12213880241713972
23:10,-0.11078557040835012
23:10,-0.10593297930781909
23:10,-0.10602453763047061
23:10,-0.10767258743819813
23:10,-0.10895440395531954
23:10,-0.11096868705365318
23:10,-0.1154550448635781
23:10,-0.12223036073979125
23:10,-0.12854788500274675
23:10,-0.13294268449002014
23:10,-0.13578099249221753
23:10,-0.13926020875297565
23:10,-0.14502838308002197
23:10,-0.15070499908441679
23:10,-0.15189525727888664
23:10,-0.1488738326313862
23:10,-0.14585240798388574
23:10,-0.1420069584325215
23:10,-0.13239333455411098
23:10,-0.11746932796191174
23:10,-0.10455960446804614
23:10,-0.09879143014099982
23:10,-0.09888298846365134
23:10,-0.10098882988463652
23:10,-0.10172129646584875
23:10,-0.0984251968503937
23:10,-0.09183299761948362
23:10,-0.0864310565830434
23:10,-0.08469144845266435
23:10,-0.08533235671122505
23:10,-0.08597326496978576
23:10,-0.08414209851675518
23:10,-0.0785570408350119
23:10,-0.07141549166819264
23:10,-0.06647134224501007
23:10,-0.06271745101629739
23:10,-0.05337850210584142
23:10,-0.03351034609045962
23:10,-0.009064273942501373
23:10,0.004577916132576451
23:10,0.0
23:10,-0.01602270646401758
23:10,-0.03268632118659586
23:10,-0.04577916132576451
23:10,-0.05539278520417506
23:10,-0.06070316791796374
23:10,-0.062168101080388206
23:10,-0.06189342611243362
23:10,-0.06070316791796374
23:10,-0.05777330159311481
23:10,-0.0545687603003113
23:10,-0.055667460172129646
23:10,-0.06006225965940304
23:10,-0.06006225965940304
23:10,-0.05438564365500824
23:10,-0.04614539461637063
23:10,-0.03085515473356528
23:10,-0.004852591100531038
23:10,0.03296099615455045
23:10,0.08679728987364951
23:10,0.1532686321186596
23:10,0.21342245010071415
23:10,0.2394250137337484
23:10,0.2138802417139718
23:10,0.1464017579197949
23:10,0.06290056766160045
23:10,-0.020234389305987914
23:10,-0.09943233839956052
23:10,-0.16636147225782824
23:10,-0.20701336751510713
23:10,-0.20985167551730452
23:10,-0.17707379600805714
23:10,-0.12689983519501924
23:10,-0.08102911554660319
23:10,-0.05154733565281084
23:10,-0.037081120673869254
23:10,-0.029207104925837758
23:10,-0.02142464750045779
23:10,-0.012268815235304889
23:10,-0.003570774583409632
23:10,0.0021058414209851675
23:10,0.0061344076176524445
23:10,0.008698040651895257
23:10,0.007141549166819264
23:10,0.0021973997436366965
23:10,-0.0024720747115912836
23:10,-0.004577916132576451
23:10,-0.003479216260758103
23:10,-0.0006409082585607032
23:10,0.00375389122871269
23:10,0.011444790331441128
23:10,0.023072697308185314
23:10,0.03579930415674785
23:10,0.04477201977659769
23:10,0.04898370261856803
23:10,0.05090642739425014
23:10,0.05264603552462919
23:10,0.05438564365500824
23:10,0.05548434352682659
23:10,0.05502655191356894
23:10,0.05218824391137154
23:10,0.046511627906976744
23:10,0.03918696209485442
23:10,0.03378502105841421
23:10,0.03460904596227797
23:10,0.04403955319538546
23:10,0.06006225965940304
23:10,0.07599340780076909
23:10,0.08633949826039188
23:10,0.09174143929683208
23:10,0.0958615638161509
23:10,0.10190441311115181
23:10,0.1097784288591833
23:10,0.11838491118842703
23:10,0.1296465848745651
23:10,0.14603552462918878
23:10,0.16599523896722213
23:10,0.1874198864676799
23:10,0.20719648416041017
23:10,0.21909906610510896
23:10,0.21781724958798754
23:10,0.2034425929316975
23:10,0.18366599523896723
23:10,0.16947445522798021
23:10,0.16507965574070682
23:10,0.167185497161692
23:10,0.1716718549716169
23:10,0.17533418787767807
23:10,0.17277055484343526
23:10,0.15564914850759934
23:10,0.12186412744918514
23:10,0.08240249038637612
23:10,0.05310382713788683
23:10,0.04046877861197583
23:10,0.03955319538546054
23:10,0.04294085332356711
23:10,0.046420069584325215
23:10,0.046328511261673685
23:10,0.035982420802050906
23:10,0.013733748397729353
23:10,-0.006500640908258561
23:10,-0.00943050723310749
23:10,0.0
23:10,0.007782457425379967
23:10,0.01034609045962278
23:10,0.010071415491668192
23:10,0.007782457425379967
23:10,0.0019227247756821095
23:10,-0.006958432521516206
23:10,-0.015748031496062992
23:10,-0.021149972532503204
23:10,-0.02151620582310932
23:10,-0.01409998168833547
23:10,0.0028383080021973997
23:10,0.023072697308185314
23:10,0.0353415125434902
23:10,0.03625709577000549
23:10,0.03158762131477751
23:10,0.02636879692364036
23:10,0.021973997436366965
23:10,0.020325947628639443
23:10,0.023805163889397546
23:10,0.030488921442959165
23:10,0.035982420802050906
23:10,0.03808826222303607
23:10,0.037905145577733015
23:10,0.03763047060977843
23:10,0.03946163706280901
23:10,0.044405786485991576
23:10,0.05072331074894708
23:10,0.05411096868705365
23:10,0.05246291887932613
23:10,0.0488921442959165
23:10,0.04715253616553745
23:10,0.04852591100531038
23:10,0.05163889397546237
23:10,0.05328694378318989
23:10,0.0523713605566746
23:10,0.052005127266068485
23:10,0.05438564365500824
23:10,0.0574070683025087
23:10,0.05704083501190258
23:10,0.051089544039553195
23:10,0.04110968687053653
23:10,0.03268632118659586
23:10,0.0290239882805347
23:10,0.028383080021973997
23:10,0.027833730086064823
23:10,0.026826588536898004
23:10,0.025911005310382713
23:10,0.0261856802783373
23:10,0.027559055118110236
23:10,0.028291521699322468
23:10,0.02819996337667094
23:10,0.02801684673136788
23:10,0.028291521699322468
23:10,0.028657754989928584
23:10,0.028566196667277055
23:10,0.027559055118110236
23:10,0.02536165537447354
23:10,0.02353048892144296
23:10,0.022981138985533785
23:10,0.022157114081670023
23:10,0.020051272660684856
23:10,0.01867789782091192
23:10,0.018220106207654276
23:10,0.017304522981138985
23:10,0.01593114814136605
23:10,0.014374656656290057
23:10,0.012543490203259476
23:10,0.011536348654092657
23:10,0.014466214978941586
23:10,0.02517853872917048
23:10,0.040743453579930415
23:10,0.05328694378318989
23:10,0.05878044314228163
23:10,0.05878044314228163
23:10,0.05447720197765977
23:10,0.045504486357809924
23:10,0.033144112799853506
23:10,0.021149972532503204
23:10,0.014374656656290057
23:10,0.01400842336568394
23:10,0.01593114814136605
23:10,0.015564914850759934
23:10,0.013275956784471708
23:10,0.011627906976744186
23:10,0.012543490203259476
23:10,0.017121406335835927
23:10,0.025086980406518952
23:10,0.03442592931697491
23:10,0.04239150338765794
23:10,0.046511627906976744
23:10,0.045504486357809924
23:10,0.03918696209485442
23:10,0.029664896539095403
23:10,0.020142830983336385
23:10,0.011444790331441128
23:10,0.0029298663248489287
23:10,-0.005218824391137154
23:10,-0.012909723493865592
23:10,-0.0205090642739425
23:10,-0.027925288408716352
23:10,-0.0347006042849295
23:10,-0.040743453579930415
23:10,-0.04577916132576451
23:10,-0.04944149423182567
23:10,-0.05429408533235671
23:10,-0.061344076176524445
23:10,-0.06363303424281268
23:10,-0.05365317707379601
23:10,-0.031404504669474455
23:10,0.0014649331624244644
23:10,0.045504486357809924
23:10,0.10208752975645487
23:10,0.16654458890313129
23:10,0.22450100714154916
23:10,0.25984251968503935
23:10,0.2527925288408716
23:10,0.19007507782457425
23:10,0.0864310565830434
23:10,-0.0325032045412928
23:10,-0.14722578282365867
23:10,-0.22990294817798937
23:10,-0.2593847280717817
23:10,-0.24217176341329427
23:10,-0.1993224684123787
23:10,-0.1551913568943417
23:10,-0.1268082768723677
23:10,-0.11096868705365318
23:10,-0.09540377220289324
23:10,-0.07700054934993592
23:10,-0.05978758469144845
23:10,-0.04715253616553745
23:10,-0.03955319538546054
23:10,-0.035066837575535616
23:10,-0.03296099615455045
23:10,-0.035066837575535616
23:10,-0.04294085332356711
23:10,-0.05438564365500824
23:10,-0.06381615088811574
23:10,-0.06775315876213148
23:10,-0.06665445889031313
23:10,-0.06363303424281268
23:10,-0.06207654275773668
23:10,-0.062168101080388206
23:10,-0.05969602636879692
23:10,-0.04971616919978026
23:10,-0.03277787950924739
23:10,-0.01583958981871452
23:10,-0.005127266068485625
23:10,-0.0013733748397729353
23:10,-0.0019227247756821095
23:10,-0.004120124519318806
23:10,-0.004852591100531038
23:10,-0.003387657938106574
23:10,-0.0010071415491668192
23:10,0.0028383080021973997
23:10,0.010620765427577367
23:10,0.020783739241897088
23:10,0.027650613440761765
23:10,0.028749313312580113
23:10,0.02801684673136788
23:10,0.03296099615455045
23:10,0.049166819263871085
23:10,0.07306354147592016
23:10,0.09384728071781726
23:10,0.1050173960813038
23:10,0.10904596227797107
23:10,0.11344076176524447
23:10,0.1252517853872917
23:10,0.1429225416590368
23:10,0.15921992309100896
23:10,0.16965757187328329
23:10,0.1737776963926021
23:10,0.17277055484343526
23:10,0.16984068851858633
23:10,0.1684673136788134
23:10,0.16791796374290424
23:10,0.16480498077275224
23:10,0.1571140816700238
23:10,0.14685954953305255
23:10,0.13523164255630837
23:10,0.12030763596410914
23:10,0.1025453213697125
23:10,0.08762131477751328
23:10,0.07901483244826955
23:10,0.07342977476652628
23:10,0.06427394250137337
23:10,0.04788500274674968
23:10,0.02636879692364036
23:10,0.005401941036440212
23:10,-0.009705182201062076
23:10,-0.019868156015381798
23:10,-0.029390221571140816
23:10,-0.037081120673869254
23:10,-0.03946163706280901
23:10,-0.03872917048159678
23:10,-0.03918696209485442
23:10,-0.04248306171030947
23:10,-0.04687786119758286
23:10,-0.051089544039553195
23:10,-0.054934993590917414
23:10,-0.05722395165720564
23:10,-0.055759018494781175
23:10,-0.05072331074894708
23:10,-0.04577916132576451
23:10,-0.04486357809924922
23:10,-0.04788500274674968
23:10,-0.05218824391137154
23:10,-0.05685771836659952
23:10,-0.06253433437099433
23:10,-0.06894341695660136
23:10,-0.07462003296099616
23:10,-0.07828236586705732
23:10,-0.07938106573887567
23:10,-0.07718366599523897
23:10,-0.07114081670023806
23:10,-0.06317524262955503
23:10,-0.057590184947811755
23:10,-0.055759018494781175
23:10,-0.05603369346273576
23:10,-0.05594213514008423
23:10,-0.05429408533235671
23:10,-0.05063175242629555
23:10,-0.04486357809924922
23:10,-0.03726423731917231
23:10,-0.029390221571140816
23:10,-0.023713605566746017
23:10,-0.021790880791063907
23:10,-0.02261490569492767
23:10,-0.02343893059879143
23:10,-0.022889580662882256
23:10,-0.021882439113715436
23:10,-0.022248672404321553
23:10,-0.024171397180003662
23:10,-0.02719282182750412
23:10,-0.03195385460538363
23:10,-0.03872917048159678
23:10,-0.04513825306720381
23:10,-0.04852591100531038
23:10,-0.0466947445522798
23:10,-0.03946163706280901
23:10,-0.029573338216443874
23:10,-0.02142464750045779
23:10,-0.016205823109320637
23:10,-0.012451931880607947
23:10,-0.009796740523713605
23:10,-0.008240249038637612
23:10,-0.007049990844167735
23:10,-0.0058597326496978575
23:10,-0.004120124519318806
23:10,-0.0029298663248489287
23:10,-0.005493499359091741
23:10,-0.011994140267350302
23:10,-0.018311664530305805
23:10,-0.022157114081670023
23:10,-0.02545321369712507
23:10,-0.029298663248489287
23:10,-0.032411646218641274
23:10,-0.034151254349020325
23:10,-0.03488372093023256
23:10,-0.034151254349020325
23:10,-0.028840871635231642
23:10,-0.0176707562717451
23:10,-0.007233107489470793
23:10,-0.006500640908258561
23:10,-0.015473356528108405
23:10,-0.025727888665079655
23:10,-0.032411646218641274
23:10,-0.03735579564182384
23:10,-0.04220838674235488
23:10,-0.045504486357809924
23:10,-0.04513825306720381
23:10,-0.040651895257278886
23:10,-0.03451748763962644
23:10,-0.03012268815235305
23:10,-0.028749313312580113
23:10,-0.028840871635231642
23:10,-0.028474638344625526
23:10,-0.02728438015015565
23:10,-0.02435451382530672
23:10,-0.018128547885002746
23:10,-0.007141549166819264
23:10,0.007324665812122322
23:10,0.020875297564548617
23:10,0.028566196667277055
23:10,0.028291521699322468
23:10,0.02160776414576085
23:10,0.01318439846182018
23:10,0.008789598974546786
23:10,0.011719465299395715
23:10,0.021058414209851675
23:10,0.033235671122505035
23:10,0.041750595129097234
23:10,0.042574620032960996
23:10,0.0353415125434902
23:10,0.01794543123969969
23:10,-0.010071415491668192
23:10,-0.03918696209485442
23:10,-0.05612525178538729
23:10,-0.05694927668925105
23:10,-0.04577916132576451
23:10,-0.030397363120307636
23:10,-0.01867789782091192
23:10,-0.012635048525911005
23:10,-0.010162973814319722
23:10,-0.011444790331441128
23:10,-0.017121406335835927
23:10,-0.021973997436366965
23:10,-0.008240249038637612
23:10,0.04696941952023439
23:10,0.1413660501739608
23:10,0.23887566379783923
23:10,0.30864310565830433
23:10,0.33620216077641457
23:10,0.3099249221754257
23:10,0.2394250137337484
23:10,0.15509979857169018
23:10,0.06866874198864677
23:10,-0.02252334737227614
23:10,-0.10840505401941036
23:10,-0.17039003845449552
23:10,-0.19327961911737776
23:10,-0.16727705548434352
23:10,-0.09732649697857536
23:10,-0.015290239882805347
23:10,0.03909540377220289
23:10,0.05429408533235671
23:10,0.04751876945614356
23:10,0.03872917048159678
23:10,0.03488372093023256
23:10,0.03479216260758103
23:10,0.037081120673869254
23:10,0.04028566196667277
23:10,0.04202527009705182
23:10,0.040651895257278886
23:10,0.03735579564182384
23:10,0.03653177073796008
23:10,0.03946163706280901
23:10,0.0438564365500824
23:10,0.04852591100531038
23:10,0.051913568943416956
23:10,0.05319538546053836
23:10,0.053012268815235304
23:10,0.052920710492583775
23:10,0.05356161875114448
23:10,0.053836293719099065
23:10,0.05337850210584142
23:10,0.052829152169932246
23:10,0.05328694378318989
23:10,0.05603369346273576
23:10,0.062168101080388206
23:10,0.070957700054935
23:10,0.07993041567478484
23:10,0.08652261490569493
23:10,0.09009338948910456
23:10,0.09247390587804431
23:10,0.09650247207471159
23:10,0.10263687969236404
23:10,0.10986998718183483
23:10,0.1182933528657755
23:10,0.12854788500274675
23:10,0.14154916681926388
23:10,0.15921992309100896
23:10,0.18128547885002746
23:10,0.20216077641457608
23:10,0.21470426661783557
23:10,0.2176341329426845
23:10,0.2148873832631386
23:10,0.21131660867972898
23:10,0.2122321919062443
23:10,0.22193737410730635
23:10,0.2369529390221571
23:10,0.24839772935359825
23:10,0.24913019593481048
23:10,0.2375022889580663
23:10,0.21964841604101812
23:10,0.20481596777147043
23:10,0.1968503937007874
23:10,0.19245559421351402
23:10,0.1842153451748764
23:10,0.1668192638710859
23:10,0.14392968320820362
23:10,0.12479399377403406
23:10,0.11270829518403223
23:10,0.1034609045962278
23:10,0.09219923091008973
23:10,0.07754989928584509
23:10,0.06116095953122139
23:10,0.04376487822743087
23:10,0.024629188793261307
23:10,0.004486357809924922
23:10,-0.013367515107123237
23:10,-0.02609412195568577
23:10,-0.03378502105841421
23:10,-0.037813587255081486
23:10,-0.03955319538546054
23:10,-0.0403772202893243
23:10,-0.041018128547885
23:10,-0.04138436183849112
23:10,-0.04028566196667277
23:10,-0.03763047060977843
23:10,-0.03396813770371727
23:10,-0.0325032045412928
23:10,-0.03872917048159678
23:10,-0.05511811023622047
23:10,-0.07626808276872368
23:10,-0.09229078923274125
23:10,-0.09897454678630288
23:10,-0.09970701336751511
23:10,-0.09943233839956052
23:10,-0.10080571323933346
23:10,-0.10318622962827322
23:10,-0.10437648782274309
23:10,-0.10318622962827322
23:10,-0.09979857169016663
23:10,-0.09613623878410547
23:10,-0.0936641640725142
23:10,-0.0921076725874382
23:10,-0.09137520600622596
23:10,-0.09357260574986266
23:10,-0.10043947994872734
23:10,-0.10986998718183483
23:10,-0.11673686138069951
23:10,-0.11856802783373009
23:10,-0.11710309467130563
23:10,-0.11453946163706281
23:10,-0.11160959531221389
23:10,-0.10785570408350119
23:10,-0.1041018128547885
23:10,-0.10355246291887933
23:10,-0.10968687053653177
23:10,-0.12287126899835195
23:10,-0.13871085881706646
23:10,-0.14905694927668925
23:10,-0.1505218824391137
23:10,-0.1464017579197949
23:10,-0.14182384178721846
23:10,-0.13926020875297565
23:10,-0.13852774217176342
23:10,-0.13797839223585423
23:10,-0.1371543673319905
23:10,-0.13642190075077826
23:10,-0.13761215894524811
23:10,-0.14173228346456693
23:10,-0.14740889946896174
23:10,-0.15152902398828053
23:10,-0.15281084050540195
23:10,-0.15281084050540195
23:10,-0.1532686321186596
23:10,-0.15482512360373557
23:10,-0.15665629005676615
23:10,-0.15839589818714522
23:10,-0.16132576451199415
23:10,-0.16617835561252517
23:10,-0.1728621131660868
23:10,-0.17927119575169384
23:10,-0.18329976194836112
23:10,-0.18449002014283097
23:10,-0.18449002014283097
23:10,-0.18430690349752793
23:10,-0.182933528657755
23:10,-0.17936275407434535
23:10,-0.17460172129646584
23:10,-0.17368613806995056
23:10,-0.18146859549533054
23:10,-0.1974913019593481
23:10,-0.21397180003662333
23:10,-0.2240432155282915
23:10,-0.2287126899835195
23:10,-0.23365683940670207
23:10,-0.24180553012268816
23:10,-0.25114447903314413
23:10,-0.25764511994140266
23:10,-0.2602087529756455
23:10,-0.26084966123420616
23:10,-0.26094121955685773
23:10,-0.25874381981322103
23:10,-0.2526094121955686
23:10,-0.24391137154367332
23:10,-0.2372276139901117
23:10,-0.23567112250503572
23:10,-0.2394250137337484
23:10,-0.24693279619117378
23:10,-0.25508148690715987
23:10,-0.260300311298297
23:10,-0.2622230360739791
23:10,-0.26176524446072147
23:10,-0.25791979490935724
23:10,-0.24903863761215894
23:10,-0.238143197216627
23:10,-0.23329060611609595
23:10,-0.24015748031496062
23:10,-0.25526460355246294
23:10,-0.26945614356344993
23:10,-0.27687236769822376
23:10,-0.27842885918329974
23:10,-0.27778795092473907
23:10,-0.27613990111701153
23:10,-0.272935359824208
23:10,-0.2675334187877678
23:10,-0.26167368613806996
23:10,-0.2582860281999634
23:10,-0.26167368613806996
23:10,-0.2719282182750412
23:10,-0.2765061344076177
23:10,-0.257187328328145
23:10,-0.20893609229078924
23:10,-0.13486540926570226
23:10,-0.03946163706280901
23:10,0.05704083501190258
23:10,0.13010437648782275
23:10,0.1716718549716169
23:10,0.17249587987548068
23:10,0.11930049441494232
23:10,0.023713605566746017
23:10,-0.09155832265152902
23:10,-0.2116828419703351
23:10,-0.30836843069034975
23:10,-0.34819630104376487
23:10,-0.32787035341512544
23:10,-0.27137886833913205
23:10,-0.20426661783556124
23:10,-0.14704266617835562
23:10,-0.11051089544039554
23:10,-0.08835378135872551
23:10,-0.06848562534334371
23:10,-0.04898370261856803
23:10,-0.03378502105841421
23:10,-0.024079838857352133
23:10,-0.01876945614356345
23:10,-0.015656473173411463
23:10,-0.013550631752426295
23:10,-0.012268815235304889
23:10,-0.011902581944698773
23:10,-0.012268815235304889
23:10,-0.012635048525911005
23:10,-0.012726606848562534
23:10,-0.012451931880607947
23:10,-0.011353232008789599
23:10,-0.007416224134773851
23:10,0.00018311664530305805
23:10,0.009705182201062076
23:10,0.0176707562717451
23:10,0.02243178904962461
23:10,0.02435451382530672
23:10,0.024079838857352133
23:10,0.02234023072697308
23:10,0.02169932246841238
23:10,0.026826588536898004
23:10,0.03909540377220289
23:10,0.05136421900750778
23:10,0.05411096868705365
23:10,0.04861746932796191
23:10,0.04422266984068852
23:10,0.0466947445522798
23:10,0.055759018494781175
23:10,0.06619666727705549
23:10,0.07462003296099616
23:10,0.0829518403222853
23:10,0.09219923091008973
23:10,0.09860831349569676
23:10,0.0990661051089544
23:10,0.09329793078190808
23:10,0.08432521516205824
23:10,0.0763596410913752
23:10,0.07123237502288958
23:10,0.06921809192455594
23:10,0.07059146676432888
23:10,0.0763596410913752
23:10,0.08514924006592199
23:10,0.09375572239516572
23:10,0.09961545504486358
23:10,0.10162973814319722
23:10,0.10080571323933346
23:10,0.09943233839956052
23:10,0.09961545504486358
23:10,0.09998168833546969
23:10,0.09577000549349936
23:10,0.08093755722395166
23:10,0.05328694378318989
23:10,0.019135689434169566
23:10,-0.00933894891045596
23:10,-0.027467496795458707
23:10,-0.04229994506500641
23:10,-0.061252517853872916
23:10,-0.08221937374107306
23:10,-0.09979857169016663
23:10,-0.11179271195751694
23:10,-0.11820179454312398
23:10,-0.11966672770554844
23:10,-0.11490569492766893
23:10,-0.10089727156198498
23:10,-0.07837392418970884
23:10,-0.054934993590917414
23:10,-0.03763047060977843
23:10,-0.02710126350485259
23:10,-0.019868156015381798
23:10,-0.012726606848562534
23:10,-0.005676616004394799
23:10,-0.0003662332906061161
23:10,0.003570774583409632
23:10,0.007782457425379967
23:10,0.01126167368613807
23:10,0.013459073429774766
23:10,0.018220106207654276
23:10,0.0318622962827321
23:10,0.056766160043947994
23:10,0.08698040651895257
23:10,0.11316608679728987
23:10,0.13422450100714156
23:10,0.15665629005676615
23:10,0.1835744369163157
23:10,0.2104010254532137
23:10,0.23173411463101995
23:10,0.24867240432155283
23:10,0.26643471891594944
23:10,0.28557040835011904
23:10,0.301318439846182
23:10,0.31047427211133494
23:10,0.31477751327595677
23:10,0.31999633766709396
23:10,0.3306171030946713
23:10,0.3447170847830068
23:10,0.35579564182384177
23:10,0.3598242080205091
23:10,0.3585423915033877
23:10,0.356528108405054
23:10,0.3583592748580846
23:10,0.3671488738326314
23:10,0.3834462552646036
23:10,0.40303973631203077
23:10,0.4186046511627907
23:10,0.4258377586522615
23:10,0.42473905878044316
23:10,0.41741439296832084
23:10,0.40679362754074344
23:10,0.39489104559604465
23:10,0.38372093023255816
23:10,0.37529756454861746
23:10,0.37081120673869256
23:10,0.3684306903497528
23:10,0.36659952389672223
23:10,0.3671488738326314
23:10,0.3713605566746017
23:10,0.3746566562900568
23:10,0.3704449734480864
23:10,0.35661966672770556
23:10,0.33611060245376306
23:10,0.31276323017762314
23:10,0.2895074162241348
23:10,0.2702801684673137
23:10,0.26167368613806996
23:10,0.2636879692364036
23:10,0.2676249771104193
23:10,0.2662516022706464
23:10,0.2612158945248123
23:10,0.2561801867789782
23:10,0.25132759567844715
23:10,0.24519318806079474
23:10,0.23640358908624795
23:10,0.2255997070133675
23:10,0.21571140816700238
23:10,0.2084783006775316
23:10,0.20298480131843985
23:10,0.19794909357260576
23:10,0.19309650247207472
23:10,0.18906793627540744
23:10,0.18503937007874016
23:10,0.1791796374290423
23:10,0.17020692180919245
23:10,0.1602270646401758
23:10,0.15372642373191722
23:10,0.1523530488921443
23:10,0.15381798205456876
23:10,0.15509979857169018
23:10,0.15482512360373557
23:10,0.15290239882805348
23:10,0.15043032411646218
23:10,0.14621864127449186
23:10,0.137245925654642
23:10,0.12406152719282183
23:10,0.11225050357077458
23:10,0.10520051272660685
23:10,0.09723493865592382
23:10,0.07938106573887567
23:10,0.051089544039553195
23:10,0.023164255630836843
23:10,0.006958432521516206
23:10,0.004120124519318806
23:10,0.007874015748031496
23:10,0.011078557040835012
23:10,0.008606482329243728
23:10,-0.005218824391137154
23:10,-0.031312946346822926
23:10,-0.05063175242629555
23:10,-0.039003845449551364
23:10,0.00842336568394067
23:10,0.08038820728804248
23:10,0.15308551547335653
23:10,0.1965757187328328
23:10,0.20490752609412197
23:10,0.19758286028199964
23:10,0.18018677897820912
23:10,0.13614722578282365
23:10,0.060336934627357626
23:10,-0.027833730086064823
23:10,-0.10776414576084967
23:10,-0.16160043947994873
23:10,-0.16919978026002563
23:10,-0.1375206006225966
23:10,-0.10217908807910639
23:10,-0.08102911554660319
23:10,-0.06702069218091924
23:10,-0.05612525178538729
23:10,-0.04971616919978026
23:10,-0.045412928035158395
23:10,-0.0403772202893243
23:10,-0.036073979124702435
23:10,-0.03579930415674785
23:10,-0.040651895257278886
23:10,-0.0488921442959165
23:10,-0.0545687603003113
23:10,-0.05347006042849295
23:10,-0.04843435268265885
23:10,-0.044588903131294634
23:10,-0.04312396996887017
23:10,-0.04330708661417323
23:10,-0.04477201977659769
23:10,-0.04861746932796191
23:10,-0.055667460172129646
23:10,-0.06390770921076726
23:10,-0.069401208569859
23:10,-0.070957700054935
23:10,-0.0706830250869804
23:10,-0.07141549166819264
23:10,-0.07370444973448087
23:10,-0.0766343160593298
23:10,-0.08093755722395166
23:10,-0.08762131477751328
23:10,-0.0933894891045596
23:10,-0.09265702252334737
23:10,-0.08313495696758835
23:10,-0.0696758835378136
23:10,-0.06015381798205457
23:10,-0.05777330159311481
23:10,-0.05923823475553928
23:10,-0.06061160959531221
23:10,-0.060428492950009155
23:10,-0.05823109320637246
23:10,-0.050997985716901666
23:10,-0.03479216260758103
23:10,-0.011811023622047244
23:10,0.007690899102728438
23:10,0.01675517304522981
23:10,0.017396081303790514
23:10,0.015656473173411463
23:10,0.015748031496062992
23:10,0.019044131111518037
23:10,0.024537630470609778
23:10,0.03094671305621681
23:10,0.0381798205456876
23:10,0.04376487822743087
23:10,0.041018128547885
23:10,0.02517853872917048
23:10,0.0
23:10,-0.025544772019776597
23:10,-0.0438564365500824
23:10,-0.05182201062076543
23:10,-0.05328694378318989
23:10,-0.056583043398644936
23:10,-0.07077458340963194
23:10,-0.09860831349569676
23:10,-0.13010437648782275
23:10,-0.1507965574070683
23:10,-0.15784654825123604
23:10,-0.15940303973631204
23:10,-0.16160043947994873
23:10,-0.16416407251419154
23:10,-0.16572056399926754
23:10,-0.16700238051638894
23:10,-0.16929133858267717
23:10,-0.17139718000366233
23:10,-0.1712140633583593
23:10,-0.16736861380699505
23:10,-0.16141732283464566
23:10,-0.15757187328328146
23:10,-0.15857901483244827
23:10,-0.1630653726423732
23:10,-0.16828419703351036
23:10,-0.1722212049075261
23:10,-0.1735030214246475
23:10,-0.1690166636147226
23:10,-0.15574070683025087
23:10,-0.1375206006225966
23:10,-0.12296282732100348
23:10,-0.1160959531221388
23:10,-0.11426478666910822
23:10,-0.11115180369895623
23:10,-0.10208752975645487
23:10,-0.09293169749130196
23:10,-0.09238234755539279
23:10,-0.09787584691448453
23:10,-0.10181285478850027
23:10,-0.10272843801501556
23:10,-0.10199597143380333
23:10,-0.09851675517304523
23:10,-0.08917780626258927
23:10,-0.07388756637978393
23:10,-0.058688884819630104
23:10,-0.049990844167734846
23:10,-0.04770188610144662
23:10,-0.04797656106940121
23:10,-0.048342794360007324
23:10,-0.04852591100531038
23:10,-0.0488921442959165
23:10,-0.049258377586522614
23:10,-0.04788500274674968
23:10,-0.04587071964841604
23:10,-0.0466947445522798
23:10,-0.05136421900750778
23:10,-0.05630836843069035
23:10,-0.059421351400842336
23:10,-0.06198498443508515
23:10,-0.06491485075993408
23:10,-0.06619666727705549
23:10,-0.0608862845632668
23:10,-0.04614539461637063
23:10,-0.02728438015015565
23:10,-0.01602270646401758
23:10,-0.017304522981138985
23:10,-0.025544772019776597
23:10,-0.03277787950924739
23:10,-0.036898004028566196
23:10,-0.03964475370811207
23:10,-0.040743453579930415
23:10,-0.038912287126899835
23:10,-0.03488372093023256
23:10,-0.030214246475004577
23:10,-0.026551913568943417
23:10,-0.02636879692364036
23:10,-0.030672038088262223
23:10,-0.04019410364402124
23:10,-0.05594213514008423
23:10,-0.0722395165720564
23:10,-0.08102911554660319
23:10,-0.08221937374107306
23:10,-0.08020509064273942
23:10,-0.07819080754440579
23:10,-0.0772752243178905
23:10,-0.07709210767258744
23:10,-0.07718366599523897
23:10,-0.0772752243178905
23:10,-0.07736678264054203
23:10,-0.07745834096319355
23:10,-0.07736678264054203
23:10,-0.07700054934993592
23:10,-0.07617652444607215
23:10,-0.07370444973448087
23:10,-0.06711225050357078
23:10,-0.05557590184947812
23:10,-0.04184215345174876
23:10,-0.0290239882805347
23:10,-0.018128547885002746
23:10,-0.009247390587804431
23:10,-0.0026551913568943417
23:10,-0.0015564914850759934
23:10,-0.008057132393334554
23:10,-0.018311664530305805
23:10,-0.026002563633034242
23:10,-0.029664896539095403
23:10,-0.03076359641091375
23:10,-0.03158762131477751
23:10,-0.03305255447720198
23:10,-0.03479216260758103
23:10,-0.03497527925288409
23:10,-0.033235671122505035
23:10,-0.0347006042849295
23:10,-0.043490203259476286
23:10,-0.04797656106940121
23:10,-0.03460904596227797
23:10,-0.007690899102728438
23:10,0.02517853872917048
23:10,0.06555575901849478
23:10,0.1126167368613807
23:10,0.16013550631752427
23:10,0.20243545138253066
23:10,0.23292437282548983
23:10,0.2359457974729903
23:10,0.1921809192455594
23:10,0.09952389672221205
23:10,-0.017304522981138985
23:10,-0.12277971067570043
23:10,-0.19144845266434718
23:10,-0.21241530855154733
23:10,-0.19346273576268083
23:10,-0.1662699139351767
23:10,-0.15317707379600806
23:10,-0.14109137520600623
23:10,-0.11655374473539645
23:10,-0.0901849478117561
23:10,-0.07553561618751145
23:10,-0.07498626625160228
23:10,-0.0845083318073613
23:10,-0.09677714704266618
23:10,-0.10437648782274309
23:10,-0.10657388756637978
23:10,-0.1069401208569859
23:10,-0.10739791247024355
23:10,-0.10739791247024355
23:10,-0.10520051272660685
23:10,-0.10016480498077275
23:10,-0.09412195568577184
23:10,-0.09009338948910456
23:10,-0.08899468961728621
23:10,-0.08945248123054386
23:10,-0.08972715619849844
23:10,-0.08872001464933163
23:10,-0.08661417322834646
23:10,-0.08487456509796741
23:10,-0.08478300677531588
23:10,-0.08661417322834646
23:10,-0.09027650613440762
23:10,-0.09476286394433255
23:10,-0.09924922175425746
23:10,-0.10391869620948545
23:10,-0.10776414576084967
23:10,-0.1097784288591833
23:10,-0.10986998718183483
23:10,-0.10776414576084967
23:10,-0.10309467130562168
23:10,-0.09705182201062076
23:10,-0.09183299761948362
23:10,-0.08606482329243728
23:10,-0.07370444973448087
23:10,-0.05063175242629555
23:10,-0.022798022340230727
23:10,-0.0013733748397729353
23:10,0.009613623878410547
23:10,0.014374656656290057
23:10,0.017121406335835927
23:10,0.021333089177806262
23:10,0.029664896539095403
23:10,0.039919428676066654
23:10,0.04596227797106757
23:10,0.044405786485991576
23:10,0.03808826222303607
23:10,0.031404504669474455
23:10,0.02545321369712507
23:10,0.020325947628639443
23:10,0.017304522981138985
23:10,0.017121406335835927
23:10,0.019227247756821095
23:10,0.020325947628639443
23:10,0.014191540010986999
23:10,-0.004394799487273393
23:10,-0.029756454861746932
23:10,-0.049166819263871085
23:10,-0.060336934627357626
23:10,-0.07251419154001099
23:10,-0.09357260574986266
23:10,-0.12287126899835195
23:10,-0.1510712323750229
23:10,-0.16773484709760117
23:10,-0.17020692180919245
23:10,-0.1637062809009339
23:10,-0.15436733199047795
23:10,-0.14585240798388574
23:10,-0.1381615088811573
23:10,-0.13129463468229263
23:10,-0.12635048525911005
23:10,-0.12268815235304889
23:10,-0.11728621131660869
23:10,-0.10666544588903132
23:10,-0.08752975645486175
23:10,-0.06253433437099433
23:10,-0.04001098699871818
23:10,-0.022798022340230727
23:10,-0.005676616004394799
23:10,0.013001281816517121
23:10,0.02810840505401941
23:10,0.037905145577733015
23:10,0.04596227797106757
23:10,0.053927852041750594
23:10,0.061344076176524445
23:10,0.0687603003112983
23:10,0.07581029115546603
23:10,0.07974729902948179
23:10,0.07983885735213331
23:10,0.07837392418970884
23:10,0.07672587438198132
23:10,0.07608496612342062
23:10,0.07947262406152719
23:10,0.08963559787584692
23:10,0.10675700421168284
23:10,0.12607581029115547
23:10,0.13889397546236953
23:10,0.13742904229994507
23:10,0.12497711041933712
23:10,0.11325764511994141
23:10,0.10867972898736496
23:10,0.10794726240615272
23:10,0.10684856253433438
23:10,0.10465116279069768
23:10,0.1025453213697125
23:10,0.09970701336751511
23:10,0.0933894891045596
23:10,0.08432521516205824
23:10,0.0779161325764512
23:10,0.08002197399743637
23:10,0.09265702252334737
23:10,0.11096868705365318
23:10,0.12671671854971617
23:10,0.13587255081486907
23:10,0.13806995055850577
23:10,0.1337667093938839
23:10,0.1258926936458524
23:10,0.11783556125251786
23:10,0.110419337117744
23:10,0.10217908807910639
23:10,0.09293169749130196
23:10,0.08514924006592199
23:10,0.08102911554660319
23:10,0.08020509064273942
23:10,0.0807544405786486
23:10,0.08148690715986083
23:10,0.08185314045046695
23:10,0.08093755722395166
23:10,0.0772752243178905
23:10,0.06995055850576817
23:10,0.0615271928218275
23:10,0.05649148507599341
23:10,0.056583043398644936
23:10,0.05997070133675151
23:10,0.06390770921076726
23:10,0.06738692547152536
23:10,0.0715986083134957
23:10,0.07498626625160228
23:10,0.07352133308917781
23:10,0.06454861746932797
23:10,0.050997985716901666
23:10,0.038912287126899835
23:10,0.030672038088262223
23:10,0.024995422083867423
23:10,0.021241530855154733
23:10,0.020417505951290972
23:10,0.023896722212049075
23:10,0.03369346273576268
23:10,0.05044863578099249
23:10,0.069401208569859
23:10,0.08249404870902766
23:10,0.08707196484160411
23:10,0.08734663980955869
23:10,0.08725508148690717
23:10,0.08698040651895257
23:10,0.08139534883720931
23:10,0.06473173411463103
23:10,0.038912287126899835
23:10,0.014649331624244644
23:10,-0.00027467496795458707
23:10,-0.0061344076176524445
23:10,-0.0062259659403039735
23:10,-0.003937007874015748
23:10,-0.004577916132576451
23:10,-0.013825306720380882
23:10,-0.027925288408716352
23:10,-0.03479216260758103
23:10,-0.031312946346822926
23:10,-0.020142830983336385
23:10,0.0059512909723493865
23:10,0.054751876945614356
23:10,0.11920893609229079
23:10,0.1835744369163157
23:10,0.23832631386193004
23:10,0.27815418421534516
23:10,0.2889580662882256
23:10,0.25306720380882625
23:10,0.17020692180919245
23:10,0.05704083501190258
23:10,-0.06610510895440395
23:10,-0.1728621131660868
23:10,-0.23301593114814137
23:10,-0.2375022889580663
23:10,-0.20444973448086431
23:10,-0.16095953122138804
23:10,-0.12268815235304889
23:10,-0.09229078923274125
23:10,-0.0706830250869804
23:10,-0.058597326496978575
23:10,-0.05246291887932613
23:10,-0.04880058597326497
23:10,-0.04559604468046145
23:10,-0.042666178355612525
23:10,-0.04138436183849112
23:10,-0.041567478483794176
23:10,-0.039919428676066654
23:10,-0.03177073796008057
23:10,-0.017304522981138985
23:10,-0.0031129829701519868
23:10,0.0025636330342428126
23:10,-0.0020142830983336385
23:10,-0.012085698590001831
23:10,-0.020325947628639443
23:10,-0.023255813953488372
23:10,-0.02261490569492767
23:10,-0.0205090642739425
23:10,-0.01684673136788134
23:10,-0.010895440395531954
23:10,-0.004394799487273393
23:10,0.0
23:10,0.0014649331624244644
23:10,0.0014649331624244644
23:10,0.0007324665812122322
23:10,-0.0010986998718183483
23:10,-0.004211682841970335
23:10,-0.005401941036440212
23:10,-0.0003662332906061161
23:10,0.010986998718183483
23:10,0.023255813953488372
23:10,0.03085515473356528
23:10,0.03488372093023256
23:10,0.04138436183849112
23:10,0.0523713605566746
23:10,0.06390770921076726
23:10,0.07342977476652628
23:10,0.08377586522614906
23:10,0.09924922175425746
23:10,0.12195568577183666
23:10,0.14804980772752244
23:10,0.16919978026002563
23:10,0.1807361289141183
23:10,0.18540560336934628
23:10,0.18687053653177074
23:10,0.18558872001464932
23:10,0.1807361289141183
23:10,0.1732283464566929
23:10,0.16608679728987366
23:10,0.16114264786669108
23:10,0.15729719831532687
23:10,0.15198681560153818
23:10,0.1429225416590368
23:10,0.1283647683574437
23:10,0.10730635414759201
23:10,0.08286028199963377
23:10,0.06097784288591833
23:10,0.04468046145394616
23:10,0.032228529573338216
23:10,0.022889580662882256
23:10,0.01785387291704816
23:10,0.016297381431972166
23:10,0.015290239882805347
23:10,0.011444790331441128
23:10,0.0003662332906061161
23:10,-0.020417505951290972
23:10,-0.04468046145394616
23:10,-0.061435634499175974
23:10,-0.06702069218091924
23:10,-0.06573887566379784
23:10,-0.061344076176524445
23:10,-0.05612525178538729
23:10,-0.05273759384728072
23:10,-0.05255447720197766
23:10,-0.0545687603003113
23:10,-0.05603369346273576
23:10,-0.055759018494781175
23:10,-0.054934993590917414
23:10,-0.05429408533235671
23:10,-0.05154733565281084
23:10,-0.046328511261673685
23:10,-0.04211682841970335
23:10,-0.041659036806445705
23:10,-0.043581761582127815
23:10,-0.045504486357809924
23:10,-0.046511627906976744
23:10,-0.04696941952023439
23:10,-0.04696941952023439
23:10,-0.04522981138985534
23:10,-0.04028566196667277
23:10,-0.03360190441311115
23:10,-0.028749313312580113
23:10,-0.027375938472807178
23:10,-0.027650613440761765
23:10,-0.027742171763413294
23:10,-0.02810840505401941
23:10,-0.031129829701519868
23:10,-0.03854605383629372
23:10,-0.048251236037355795
23:10,-0.05530122688152353
23:10,-0.057590184947811755
23:10,-0.056674601721296465
23:10,-0.05411096868705365
23:10,-0.05090642739425014
23:10,-0.04715253616553745
23:10,-0.04220838674235488
23:10,-0.03671488738326314
23:10,-0.033144112799853506
23:10,-0.03213697125068669
23:10,-0.03094671305621681
23:10,-0.026460355246291888
23:10,-0.019410364402124153
23:10,-0.014374656656290057
23:10,-0.017396081303790514
23:10,-0.031221388024171397
23:10,-0.05044863578099249
23:10,-0.06491485075993408
23:10,-0.07077458340963194
23:10,-0.07040835011902583
23:10,-0.06418238417872185
23:10,-0.050173960813037904
23:10,-0.03277787950924739
23:10,-0.021241530855154733
23:10,-0.018952572788866508
23:10,-0.02142464750045779
23:10,-0.023713605566746017
23:10,-0.024903863761215894
23:10,-0.026643471891594946
23:10,-0.03158762131477751
23:10,-0.03955319538546054
23:10,-0.04861746932796191
23:10,-0.05713239333455411
23:10,-0.0639992675334188
23:10,-0.06683757553561619
23:10,-0.06518952572788866
23:10,-0.06171030946713056
23:10,-0.05823109320637246
23:10,-0.05401941036440212
23:10,-0.04870902765061344
23:10,-0.044405786485991576
23:10,-0.04229994506500641
23:10,-0.04202527009705182
23:10,-0.04330708661417323
23:10,-0.046328511261673685
23:10,-0.050997985716901666
23:10,-0.05594213514008423
23:10,-0.05978758469144845
23:10,-0.06097784288591833
23:10,-0.05603369346273576
23:10,-0.041750595129097234
23:10,-0.02261490569492767
23:10,-0.008514924006592199
23:10,-0.003296099615455045
23:10,-0.0021058414209851675
23:10,-0.0010071415491668192
23:10,0.00018311664530305805
23:10,0.0010986998718183483
23:10,0.0019227247756821095
23:10,0.0021058414209851675
23:10,-0.0007324665812122322
23:10,-0.00933894891045596
23:10,-0.02243178904962461
23:10,-0.03543307086614173
23:10,-0.04522981138985534
23:10,-0.051089544039553195
23:10,-0.053836293719099065
23:10,-0.055667460172129646
23:10,-0.05731550997985717
23:10,-0.05704083501190258
23:10,-0.053744735396447536
23:10,-0.05063175242629555
23:10,-0.04944149423182567
23:10,-0.04660318622962827
23:10,-0.03167917963742904
23:10,0.008057132393334554
23:10,0.07214795824940487
23:10,0.1409998168833547
23:10,0.1952939022157114
23:10,0.22971983153268632
23:10,0.24043215528291523
23:10,0.21177440029298664
23:10,0.1394433253982787
23:10,0.04248306171030947
23:10,-0.06161875114447903
23:10,-0.15418421534517487
23:10,-0.20866141732283464
23:10,-0.22102179088079107
23:10,-0.20747115912836478
23:10,-0.17798937923457242
23:10,-0.13706280900933895
23:10,-0.0949459805896356
23:10,-0.0672038088262223
23:10,-0.05795641823841787
23:10,-0.05813953488372093
23:10,-0.058414209851675516
23:10,-0.05557590184947812
23:10,-0.04989928584508332
23:10,-0.04239150338765794
23:10,-0.03369346273576268
23:10,-0.025636330342428126
23:10,-0.0205090642739425
23:10,-0.018952572788866508
23:10,-0.020325947628639443
23:10,-0.02435451382530672
23:10,-0.030488921442959165
23:10,-0.03589086247939938
23:10,-0.03808826222303607
23:10,-0.036989562351217725
23:10,-0.034334370994323384
23:10,-0.031404504669474455
23:10,-0.02819996337667094
23:10,-0.024995422083867423
23:10,-0.023622047244094488
23:10,-0.02527009705182201
23:10,-0.027925288408716352
23:10,-0.027650613440761765
23:10,-0.021241530855154733
23:10,-0.009064273942501373
23:10,0.005127266068485625
23:10,0.01776231459439663
23:10,0.02801684673136788
23:10,0.03680644570591467
23:10,0.04303241164621864
23:10,0.045321369712506866
23:10,0.04394799487273393
23:10,0.04092657022523347
23:10,0.04010254532136971
23:10,0.04522981138985534
23:10,0.0580479765610694
23:10,0.07864859915766344
23:10,0.10437648782274309
23:10,0.12671671854971617
23:10,0.13852774217176342
23:10,0.14118293352865777
23:10,0.14045046694744553
23:10,0.140358908624794
23:10,0.14118293352865777
23:10,0.14209851675517304
23:10,0.14328877494964293
23:10,0.14566929133858267
23:10,0.1485075993407801
23:10,0.14942318256729537
23:10,0.14750045779161325
23:10,0.14173228346456693
23:10,0.12827321003479217
23:10,0.10098882988463652
23:10,0.06344991759750962
23:10,0.03012268815235305
23:10,0.011994140267350302
23:10,0.006775315876213148
23:10,0.006866874198864677
23:10,0.007233107489470793
23:10,0.005218824391137154
23:10,0.00027467496795458707
23:10,-0.007233107489470793
23:10,-0.01794543123969969
23:10,-0.03103827137886834
23:10,-0.04202527009705182
23:10,-0.046328511261673685
23:10,-0.04239150338765794
23:10,-0.03003112982970152
23:10,-0.013642190075077824
23:10,-0.0013733748397729353
23:10,0.0027467496795458707
23:10,-0.00027467496795458707
23:10,-0.009247390587804431
23:10,-0.02142464750045779
23:10,-0.03204541292803516
23:10,-0.039736312030763596
23:10,-0.0466947445522798
23:10,-0.05411096868705365
23:10,-0.06006225965940304
23:10,-0.06070316791796374
23:10,-0.05218824391137154
23:10,-0.03305255447720198
23:10,-0.009613623878410547
23:10,0.0058597326496978575
23:10,0.006683757553561619
23:10,-0.005218824391137154
23:10,-0.022248672404321553
23:10,-0.03579930415674785
23:10,-0.04248306171030947
23:10,-0.04413111151803699
23:10,-0.04312396996887017
23:10,-0.0403772202893243
23:10,-0.03671488738326314
23:10,-0.033235671122505035
23:10,-0.03094671305621681
23:10,-0.03094671305621681
23:10,-0.03369346273576268
23:10,-0.03662332906061161
23:10,-0.035982420802050906
23:10,-0.028749313312580113
23:10,-0.015290239882805347
23:10,-0.0006409082585607032
23:10,0.00842336568394067
23:10,0.010986998718183483
23:10,0.010071415491668192
23:10,0.007965574070683025
23:10,0.004944149423182567
23:10,-0.0012818165171214063
23:10,-0.012909723493865592
23:10,-0.02710126350485259
23:10,-0.036989562351217725
23:10,-0.04056033693462736
23:10,-0.041018128547885
23:10,-0.04138436183849112
23:10,-0.04211682841970335
23:10,-0.04248306171030947
23:10,-0.04229994506500641
23:10,-0.041659036806445705
23:10,-0.04056033693462736
23:10,-0.03872917048159678
23:10,-0.03543307086614173
23:10,-0.031404504669474455
23:10,-0.028566196667277055
23:10,-0.027742171763413294
23:10,-0.026735030214246475
23:10,-0.022248672404321553
23:10,-0.01400842336568394
23:10,-0.005035707745834096
23:10,0.0014649331624244644
23:10,0.003479216260758103
23:10,-0.0009155832265152902
23:10,-0.009705182201062076
23:10,-0.017029848013184398
23:10,-0.020234389305987914
23:10,-0.019868156015381798
23:10,-0.016480498077275224
23:10,-0.01025453213697125
23:10,-0.0025636330342428126
23:10,0.003662332906061161
23:10,0.006409082585607032
23:10,0.004303241164621864
23:10,-0.003387657938106574
23:10,-0.014283098333638528
23:10,-0.023164255630836843
23:10,-0.027375938472807178
23:10,-0.027559055118110236
23:10,-0.023896722212049075
23:10,-0.015748031496062992
23:10,-0.004211682841970335
23:10,0.008514924006592199
23:10,0.022065555759018494
23:10,0.035249954220838674
23:10,0.046236952939022156
23:10,0.05429408533235671
23:10,0.05795641823841787
23:10,0.05401941036440212
23:10,0.04376487822743087
23:10,0.030580479765610694
23:10,0.014466214978941586
23:10,-0.0017396081303790514
23:10,-0.013275956784471708
23:10,-0.0205090642739425
23:10,-0.02636879692364036
23:10,-0.02911554660318623
23:10,-0.02343893059879143
23:10,-0.009155832265152902
23:10,0.00558505768174327
23:10,0.011536348654092657
23:10,0.00659219923091009
23:10,-0.0023805163889397546
23:10,-0.00659219923091009
23:10,0.004120124519318806
23:10,0.04092657022523347
23:10,0.1034609045962278
23:10,0.17679912104010254
23:10,0.244552279802234
23:10,0.2885918329976195
23:10,0.2911554660318623
23:10,0.24546786302874932
23:10,0.15839589818714522
23:10,0.05081486907159861
23:10,-0.05081486907159861
23:10,-0.12882255997070133
23:10,-0.1757004211682842
23:10,-0.19099066105108956
23:10,-0.182933528657755
23:10,-0.16095953122138804
23:10,-0.1268082768723677
23:10,-0.08469144845266435
23:10,-0.04861746932796191
23:10,-0.028749313312580113
23:10,-0.02234023072697308
23:10,-0.02160776414576085
23:10,-0.022157114081670023
23:10,-0.022798022340230727
23:10,-0.023622047244094488
23:10,-0.023988280534700604
23:10,-0.021058414209851675
23:10,-0.01217725691265336
23:10,0.0007324665812122322
23:10,0.011536348654092657
23:10,0.01684673136788134
23:10,0.018311664530305805
23:10,0.01776231459439663
23:10,0.01400842336568394
23:10,0.004852591100531038
23:10,-0.00659219923091009
23:10,-0.012635048525911005
23:10,-0.00842336568394067
23:10,0.0023805163889397546
23:10,0.012543490203259476
23:10,0.018403222852957334
23:10,0.021333089177806262
23:10,0.02353048892144296
23:10,0.02609412195568577
23:10,0.030672038088262223
23:10,0.037813587255081486
23:10,0.04614539461637063
23:10,0.055759018494781175
23:10,0.06692913385826772
23:10,0.07672587438198132
23:10,0.08185314045046695
23:10,0.08331807361289141
23:10,0.08304339864493683
23:10,0.08130379051455777
23:10,0.0766343160593298
23:10,0.06930965024720748
23:10,0.06354147592016114
23:10,0.06683757553561619
23:10,0.08707196484160411
23:10,0.12213880241713972
23:10,0.15665629005676615
23:10,0.17679912104010254
23:10,0.1839406702069218
23:10,0.1861380699505585
23:10,0.1874198864676799
23:10,0.18915949459805897
23:10,0.19245559421351402
23:10,0.1959348104742721
23:10,0.19419520234389306
23:10,0.18220106207654277
23:10,0.1621497894158579
23:10,0.14173228346456693
23:10,0.12442776048342795
23:10,0.10904596227797107
23:10,0.09412195568577184
23:10,0.07983885735213331
23:10,0.06729536714887384
23:10,0.05731550997985717
23:10,0.04898370261856803
23:10,0.03845449551364219
23:10,0.023255813953488372
23:10,0.006500640908258561
23:10,-0.006683757553561619
23:10,-0.013642190075077824
23:10,-0.016205823109320637
23:10,-0.018403222852957334
23:10,-0.022248672404321553
23:10,-0.026551913568943417
23:10,-0.03003112982970152
23:10,-0.034151254349020325
23:10,-0.0403772202893243
23:10,-0.04577916132576451
23:10,-0.04504669474455228
23:10,-0.03845449551364219
23:10,-0.03213697125068669
23:10,-0.02911554660318623
23:10,-0.02719282182750412
23:10,-0.024629188793261307
23:10,-0.02444607214795825
23:10,-0.029573338216443874
23:10,-0.03717267899652078
23:10,-0.04184215345174876
23:10,-0.04248306171030947
23:10,-0.04184215345174876
23:10,-0.041750595129097234
23:10,-0.04193371177440029
23:10,-0.04138436183849112
23:10,-0.04019410364402124
23:10,-0.038912287126899835
23:10,-0.036898004028566196
23:10,-0.03378502105841421
23:10,-0.030488921442959165
23:10,-0.027650613440761765
23:10,-0.023896722212049075
23:10,-0.018494781175608863
23:10,-0.012635048525911005
23:10,-0.008057132393334554
23:10,-0.004761032777879509
23:10,-0.0014649331624244644
23:10,0.0021973997436366965
23:10,0.0061344076176524445
23:10,0.01034609045962278
23:10,0.013367515107123237
23:10,0.014374656656290057
23:10,0.014283098333638528
23:10,0.014283098333638528
23:10,0.014832448269547702
23:10,0.01501556491485076
23:10,0.01309284013916865
23:10,0.008057132393334554
23:10,0.00027467496795458707
23:10,-0.009979857169016663
23:10,-0.019318806079472624
23:10,-0.02151620582310932
23:10,-0.016205823109320637
23:10,-0.009064273942501373
23:10,-0.003387657938106574
23:10,-0.00027467496795458707
23:10,-0.0013733748397729353
23:10,-0.006500640908258561
23:10,-0.011444790331441128
23:10,-0.011078557040835012
23:10,-0.005218824391137154
23:10,0.0011902581944698773
23:10,0.00466947445522798
23:10,0.004852591100531038
23:10,0.0003662332906061161
23:10,-0.010437648782274309
23:10,-0.025086980406518952
23:10,-0.0375389122871269
23:10,-0.04596227797106757
23:10,-0.052005127266068485
23:10,-0.053927852041750594
23:10,-0.04989928584508332
23:10,-0.042574620032960996
23:10,-0.0353415125434902
23:10,-0.0290239882805347
23:10,-0.024171397180003662
23:10,-0.021790880791063907
23:10,-0.021333089177806262
23:10,-0.020875297564548617
23:10,-0.018311664530305805
23:10,-0.013367515107123237
23:10,-0.008240249038637612
23:10,-0.003570774583409632
23:10,0.0016480498077275224
23:10,0.006683757553561619
23:10,0.007874015748031496
23:10,0.0023805163889397546
23:10,-0.01034609045962278
23:10,-0.029207104925837758
23:10,-0.0495330525544772
23:10,-0.06482329243728255
23:10,-0.07233107489470793
23:10,-0.07526094121955686
23:10,-0.07718366599523897
23:10,-0.07983885735213331
23:10,-0.08350119025819447
23:10,-0.08899468961728621
23:10,-0.09531221388024172
23:10,-0.09284013916865043
23:10,-0.06802783373008607
23:10,-0.018952572788866508
23:10,0.04110968687053653
23:10,0.10190441311115181
23:10,0.16105108954403954
23:10,0.20985167551730452
23:10,0.23100164804980772
23:10,0.2106757004211683
23:10,0.1438381248855521
23:10,0.040835011902581944
23:10,-0.07333821644387475
23:10,-0.17423548800585972
23:10,-0.24244643838124885
23:10,-0.26643471891594944
23:10,-0.2555392785204175
23:10,-0.22788866507965574
23:10,-0.1905328694378319
23:10,-0.1520783739241897
23:10,-0.12607581029115547
23:10,-0.11307452847463835
23:10,-0.10401025453213697
23:10,-0.09375572239516572
23:10,-0.08313495696758835
23:10,-0.07407068302508699
23:10,-0.0672038088262223
23:10,-0.062351217725691264
23:10,-0.05905511811023622
23:10,-0.05621681010803882
23:10,-0.052005127266068485
23:10,-0.04587071964841604
23:10,-0.0381798205456876
23:10,-0.03085515473356528
23:10,-0.028749313312580113
23:10,-0.036898004028566196
23:10,-0.05365317707379601
23:10,-0.07132393334554112
23:10,-0.0829518403222853
23:10,-0.0877128731001648
23:10,-0.0879875480681194
23:10,-0.08212781541842154
23:10,-0.06445705914667643
23:10,-0.03726423731917231
23:10,-0.015473356528108405
23:10,-0.00842336568394067
23:10,-0.009888298846365134
23:10,-0.011811023622047244
23:10,-0.012909723493865592
23:10,-0.013733748397729353
23:10,-0.01400842336568394
23:10,-0.011353232008789599
23:10,-0.003662332906061161
23:10,0.007690899102728438
23:10,0.020051272660684856
23:10,0.03259476286394433
23:10,0.045321369712506866
23:10,0.057681743270463284
23:10,0.06921809192455594
23:10,0.08057132393334554
23:10,0.09448818897637795
23:10,0.11197582860282
23:10,0.1283647683574437
23:10,0.1371543673319905
23:10,0.1381615088811573
23:10,0.13614722578282365
23:10,0.13486540926570226
23:10,0.13477385094305072
23:10,0.13523164255630837
23:10,0.1350485259110053
23:10,0.13330891778062626
23:10,0.12918879326130744
23:10,0.12314594396630654
23:10,0.1163706280900934
23:10,0.10950375389122871
23:10,0.099340780076909
23:10,0.08102911554660319
23:10,0.053927852041750594
23:10,0.02435451382530672
23:10,0.0008240249038637612
23:10,-0.014191540010986999
23:10,-0.023896722212049075
23:10,-0.030488921442959165
23:10,-0.03460904596227797
23:10,-0.03763047060977843
23:10,-0.041750595129097234
23:10,-0.049075260941219556
23:10,-0.06015381798205457
23:10,-0.07242263321735946
23:10,-0.08084599890130013
23:10,-0.08313495696758835
23:10,-0.08002197399743637
23:10,-0.07342977476652628
23:10,-0.06711225050357078
23:10,-0.06473173411463103
23:10,-0.06583043398644937
23:10,-0.06784471708478301
23:10,-0.06921809192455594
23:10,-0.06958432521516206
23:10,-0.06958432521516206
23:10,-0.06985900018311665
23:10,-0.07040835011902583
23:10,-0.07013367515107123
23:10,-0.06674601721296466
23:10,-0.05878044314228163
23:10,-0.0488921442959165
23:10,-0.04147592016114265
23:10,-0.0381798205456876
23:10,-0.036989562351217725
23:10,-0.035982420802050906
23:10,-0.03479216260758103
23:10,-0.0318622962827321
23:10,-0.025819446987731184
23:10,-0.018311664530305805
23:10,-0.012818165171214063
23:10,-0.010712323750228896
23:10,-0.009888298846365134
23:10,-0.008881157297198315
23:10,-0.007965574070683025
23:10,-0.007233107489470793
23:10,-0.003296099615455045
23:10,0.0062259659403039735
23:10,0.019044131111518037
23:10,0.028566196667277055
23:10,0.030397363120307636
23:10,0.026643471891594946
23:10,0.022706464017579198
23:10,0.02142464750045779
23:10,0.02142464750045779
23:10,0.019959714338033327
23:10,0.015107123237502289
23:10,0.007416224134773851
23:10,0.00018311664530305805
23:10,-0.005127266068485625
23:10,-0.009064273942501373
23:10,-0.009613623878410547
23:10,-0.005493499359091741
23:10,-0.00027467496795458707
23:10,0.0029298663248489287
23:10,0.005310382713788683
23:10,0.008881157297198315
23:10,0.015381798205456876
23:10,0.023072697308185314
23:10,0.028566196667277055
23:10,0.03286943783189892
23:10,0.03827137886833913
23:10,0.04312396996887017
23:10,0.043581761582127815
23:10,0.0381798205456876
23:10,0.028474638344625526
23:10,0.01776231459439663
23:10,0.008698040651895257
23:10,0.0019227247756821095
23:10,-0.0028383080021973997
23:10,-0.004211682841970335
23:10,-0.0009155832265152902
23:10,0.004394799487273393
23:10,0.008514924006592199
23:10,0.009979857169016663
23:10,0.009796740523713605
23:10,0.009888298846365134
23:10,0.01217725691265336
23:10,0.01794543123969969
23:10,0.026826588536898004
23:10,0.03717267899652078
23:10,0.04761032777879509
23:10,0.056674601721296465
23:10,0.06280900933894891
23:10,0.06619666727705549
23:10,0.06830250869804065
23:10,0.069401208569859
23:10,0.06628822559970701
23:10,0.05310382713788683
23:10,0.028657754989928584
23:10,0.00018311664530305805
23:10,-0.023164255630836843
23:10,-0.03955319538546054
23:10,-0.051181102362204724
23:10,-0.058414209851675516
23:10,-0.061435634499175974
23:10,-0.06116095953122139
23:10,-0.05594213514008423
23:10,-0.0438564365500824
23:10,-0.030305804797656107
23:10,-0.02060062259659403
23:10,-0.0058597326496978575
23:10,0.021973997436366965
23:10,0.05694927668925105
23:10,0.0958615638161509
23:10,0.14237319172312762
23:10,0.19465299395715072
23:10,0.24345357993041566
23:10,0.27147042666178356
23:10,0.250778245742538
23:10,0.16507965574070682
23:10,0.03378502105841421
23:10,-0.1025453213697125
23:10,-0.20774583409631936
23:10,-0.2548983702618568
23:10,-0.24482695477018862
23:10,-0.20930232558139536
23:10,-0.1781724958798755
23:10,-0.15885368980040285
23:10,-0.14493682475737044
23:10,-0.12763230177623147
23:10,-0.10648232924372826
23:10,-0.08734663980955869
23:10,-0.07049990844167735
23:10,-0.05502655191356894
23:10,-0.0438564365500824
23:10,-0.039003845449551364
23:10,-0.03918696209485442
23:10,-0.04294085332356711
23:10,-0.050173960813037904
23:10,-0.059512909723493865
23:10,-0.06793627540743453
23:10,-0.07388756637978393
23:10,-0.07901483244826955
23:10,-0.08405054019410364
23:10,-0.08670573155099799
23:10,-0.08414209851675518
23:10,-0.07773301593114815
23:10,-0.07269730818531404
23:10,-0.07214795824940487
23:10,-0.07333821644387475
23:10,-0.07342977476652628
23:10,-0.07278886650796558
23:10,-0.07187328328145029
23:10,-0.06839406702069219
23:10,-0.05923823475553928
23:10,-0.045321369712506866
23:10,-0.03158762131477751
23:10,-0.02252334737227614
23:10,-0.01886101446621498
23:10,-0.018220106207654276
23:10,-0.017487639626442043
23:10,-0.01501556491485076
23:10,-0.01025453213697125
23:10,-0.0031129829701519868
23:10,0.007416224134773851
23:10,0.02353048892144296
23:10,0.044588903131294634
23:10,0.06784471708478301
23:10,0.09348104742721114
23:10,0.12076542757736679
23:10,0.14273942501373374
23:10,0.15345174876396264
23:10,0.1549166819263871
23:10,0.15345174876396264
23:10,0.1527192821827504
23:10,0.15317707379600806
23:10,0.15372642373191722
23:10,0.15354330708661418
23:10,0.15244460721479583
23:10,0.14969785753524995
23:10,0.14438747482146128
23:10,0.13550631752426295
23:10,0.12241347738509431
23:10,0.10666544588903132
23:10,0.09256546420069585
23:10,0.08212781541842154
23:10,0.07077458340963194
23:10,0.05337850210584142
23:10,0.033235671122505035
23:10,0.0176707562717451
23:10,0.00842336568394067
23:10,-0.0023805163889397546
23:10,-0.023988280534700604
23:10,-0.05182201062076543
23:10,-0.07233107489470793
23:10,-0.07910639077092108
23:10,-0.07544405786485991
23:10,-0.06573887566379784
23:10,-0.05466031862296283
23:10,-0.04761032777879509
23:10,-0.048159677714704266
23:10,-0.05603369346273576
23:10,-0.06674601721296466
23:10,-0.07434535799304157
23:10,-0.0766343160593298
23:10,-0.07562717451016297
23:10,-0.07388756637978393
23:10,-0.0728804248306171
23:10,-0.07370444973448087
23:10,-0.07681743270463286
23:10,-0.08130379051455777
23:10,-0.08441677348470976
23:10,-0.08304339864493683
23:10,-0.07608496612342062
23:10,-0.06647134224501007
23:10,-0.05932979307819081
23:10,-0.05694927668925105
23:10,-0.057498626625160226
23:10,-0.059512909723493865
23:10,-0.062351217725691264
23:10,-0.06537264237319172
23:10,-0.06647134224501007
23:10,-0.06454861746932797
23:10,-0.061252517853872916
23:10,-0.05969602636879692
23:10,-0.06116095953122139
23:10,-0.06409082585607032
23:10,-0.06628822559970701
23:10,-0.06692913385826772
23:10,-0.06692913385826772
23:10,-0.06839406702069219
23:10,-0.07297198315326864
23:10,-0.0788317158029665
23:10,-0.08084599890130013
23:10,-0.07516938289690533
23:10,-0.06317524262955503
23:10,-0.04861746932796191
23:10,-0.03341878776780809
23:10,-0.020325947628639443
23:10,-0.012543490203259476
23:10,-0.009247390587804431
23:10,-0.006317524262955503
23:10,-0.0029298663248489287
23:10,-0.0011902581944698773
23:10,-0.0016480498077275224
23:10,-0.0023805163889397546
23:10,-0.0020142830983336385
23:10,-0.0008240249038637612
23:10,0.0004577916132576451
23:10,0.0018311664530305805
23:10,0.004486357809924922
23:10,0.010071415491668192
23:10,0.016205823109320637
23:10,0.020966855887200146
23:10,0.02536165537447354
23:10,0.029390221571140816
23:10,0.03094671305621681
23:10,0.028749313312580113
23:10,0.022889580662882256
23:10,0.016205823109320637
23:10,0.011902581944698773
23:10,0.010712323750228896
23:10,0.013825306720380882
23:10,0.0233473722761399
23:10,0.036165537447353964
23:10,0.04513825306720381
23:10,0.04797656106940121
23:10,0.04761032777879509
23:10,0.04706097784288592
23:10,0.046511627906976744
23:10,0.04495513642190075
23:10,0.04284929500091558
23:10,0.04248306171030947
23:10,0.046236952939022156
23:10,0.05539278520417506
23:10,0.06866874198864677
23:10,0.08139534883720931
23:10,0.08826222303607398
23:10,0.08698040651895257
23:10,0.07828236586705732
23:10,0.06674601721296466
23:10,0.05795641823841787
23:10,0.0523713605566746
23:10,0.04596227797106757
23:10,0.03836293719099066
23:10,0.03259476286394433
23:10,0.02893242995788317
23:10,0.022981138985533785
23:10,0.011078557040835012
23:10,-0.005127266068485625
23:10,-0.01858633949826039
23:10,-0.019868156015381798
23:10,-0.0005493499359091741
23:10,0.04376487822743087
23:10,0.11106024537630471
23:10,0.19126533601904414
23:10,0.2676249771104193
23:10,0.32558139534883723
23:10,0.35469694195202345
23:10,0.33949826039186964
23:10,0.2733931514374657
23:10,0.1754257462003296
23:10,0.06473173411463103
23:10,-0.046328511261673685
23:10,-0.12909723493865594
23:10,-0.15912836476835746
23:10,-0.14878227430873467
23:10,-0.12058231093206373
23:10,-0.08386742354880058
23:10,-0.049075260941219556
23:10,-0.028566196667277055
23:10,-0.02151620582310932
23:10,-0.019868156015381798
23:10,-0.01867789782091192
23:10,-0.016114264786669108
23:10,-0.012268815235304889
23:10,-0.007416224134773851
23:10,-0.00018311664530305805
23:10,0.00933894891045596
23:10,0.01785387291704816
23:10,0.02169932246841238
23:10,0.021241530855154733
23:10,0.019135689434169566
23:10,0.017029848013184398
23:10,0.015198681560153818
23:10,0.013459073429774766
23:10,0.013367515107123237
23:10,0.01675517304522981
23:10,0.024629188793261307
23:10,0.034059696026368796
23:10,0.040835011902581944
23:10,0.0432155282915217
23:10,0.04312396996887017
23:10,0.041567478483794176
23:10,0.037905145577733015
23:10,0.03286943783189892
23:10,0.028749313312580113
23:10,0.029207104925837758
23:10,0.03726423731917231
23:10,0.052829152169932246
23:10,0.06949276689251054
23:10,0.08038820728804248
23:10,0.08414209851675518
23:10,0.08459989013001282
23:10,0.08752975645486175
23:10,0.0971433803332723
23:10,0.11096868705365318
23:10,0.12168101080388208
23:10,0.12607581029115547
23:10,0.12653360190441312
23:10,0.12818165171214063
23:10,0.1359641091375206
23:10,0.1511627906976744
23:10,0.1700238051638894
23:10,0.18650430324116463
23:10,0.19602636879692364
23:10,0.19923091008972715
23:10,0.1987731184764695
23:10,0.19401208569859
23:10,0.1823841787218458
23:10,0.167185497161692
23:10,0.15638161508881157
23:10,0.15281084050540195
23:10,0.15152902398828053
23:10,0.14685954953305255
23:10,0.13761215894524811
23:10,0.124610877128731
23:10,0.10593297930781909
23:10,0.08002197399743637
23:10,0.05044863578099249
23:10,0.022706464017579198
23:10,-0.00018311664530305805
23:10,-0.01684673136788134
23:10,-0.02636879692364036
23:10,-0.030397363120307636
23:10,-0.03204541292803516
23:10,-0.034334370994323384
23:10,-0.03918696209485442
23:10,-0.048251236037355795
23:10,-0.061435634499175974
23:10,-0.07681743270463286
23:10,-0.09091741439296833
23:10,-0.09998168833546969
23:10,-0.10263687969236404
23:10,-0.09924922175425746
23:10,-0.09110053103827138
23:10,-0.08176158212781542
23:10,-0.07535249954220839
23:10,-0.07278886650796558
23:10,-0.07260574986266252
23:10,-0.07361289141182933
23:10,-0.07690899102728438
23:10,-0.0842336568394067
23:10,-0.09384728071781726
23:10,-0.10135506317524264
23:10,-0.1047427211133492
23:10,-0.10428492950009156
23:10,-0.10080571323933346
23:10,-0.09595312213880242
23:10,-0.09045962277971067
23:10,-0.083592748580846
23:10,-0.0766343160593298
23:10,-0.07278886650796558
23:10,-0.0728804248306171
23:10,-0.07626808276872368
23:10,-0.08157846548251237
23:10,-0.08743819813221022
23:10,-0.09284013916865043
23:10,-0.0955868888481963
23:10,-0.09164988097418056
23:10,-0.07819080754440579
23:10,-0.05969602636879692
23:10,-0.046236952939022156
23:10,-0.04239150338765794
23:10,-0.045504486357809924
23:10,-0.05182201062076543
23:10,-0.05878044314228163
23:10,-0.06381615088811574
23:10,-0.06509796740523714
23:10,-0.06354147592016114
23:10,-0.06097784288591833
23:10,-0.05786485991576634
23:10,-0.05429408533235671
23:10,-0.05136421900750778
23:10,-0.05163889397546237
23:10,-0.05932979307819081
23:10,-0.07324665812122322
23:10,-0.08569859000183117
23:10,-0.09055118110236221
23:10,-0.08661417322834646
23:10,-0.0744369163156931
23:10,-0.05878044314228163
23:10,-0.04779344442409815
23:10,-0.04422266984068852
23:10,-0.04477201977659769
23:10,-0.045321369712506866
23:10,-0.04486357809924922
23:10,-0.044405786485991576
23:10,-0.04513825306720381
23:10,-0.04587071964841604
23:10,-0.04568760300311298
23:10,-0.04559604468046145
23:10,-0.046420069584325215
23:10,-0.04779344442409815
23:10,-0.04962461087712873
23:10,-0.05246291887932613
23:10,-0.05685771836659952
23:10,-0.06271745101629739
23:10,-0.06839406702069219
23:10,-0.07178172495879875
23:10,-0.07214795824940487
23:10,-0.06766160043947995
23:10,-0.056766160043947994
23:10,-0.04284929500091558
23:10,-0.03268632118659586
23:10,-0.029207104925837758
23:10,-0.029481779893792345
23:10,-0.031129829701519868
23:10,-0.03396813770371727
23:10,-0.03680644570591467
23:10,-0.03561618751144479
23:10,-0.028749313312580113
23:10,-0.02160776414576085
23:10,-0.01876945614356345
23:10,-0.019410364402124153
23:10,-0.02069218091924556
23:10,-0.02243178904962461
23:10,-0.026002563633034242
23:10,-0.032320087895989745
23:10,-0.04056033693462736
23:10,-0.05063175242629555
23:10,-0.062351217725691264
23:10,-0.07242263321735946
23:10,-0.07718366599523897
23:10,-0.08002197399743637
23:10,-0.08167002380516389
23:10,-0.07059146676432888
23:10,-0.037996703900384544
23:10,0.013367515107123237
23:10,0.08084599890130013
23:10,0.1554660318622963
23:10,0.21534517487639626
23:10,0.2463834462552646
23:10,0.24473539644753708
23:10,0.20371726789965208
23:10,0.12415308551547335
23:10,0.02060062259659403
23:10,-0.08908624793993775
23:10,-0.17844717084783007
23:10,-0.22038088262223035
23:10,-0.21516205823109322
23:10,-0.18384911188427028
23:10,-0.14978941585790148
23:10,-0.12854788500274675
23:10,-0.11875114447903315
23:10,-0.10840505401941036
23:10,-0.09027650613440762
23:10,-0.06839406702069219
23:10,-0.055759018494781175
23:10,-0.059421351400842336
23:10,-0.07278886650796558
23:10,-0.08441677348470976
23:10,-0.0886284563266801
23:10,-0.0829518403222853
23:10,-0.06628822559970701
23:10,-0.04422266984068852
23:10,-0.028474638344625526
23:10,-0.02527009705182201
23:10,-0.03167917963742904
23:10,-0.04120124519318806
23:10,-0.048251236037355795
23:10,-0.05136421900750778
23:10,-0.051181102362204724
23:10,-0.04761032777879509
23:10,-0.041659036806445705
23:10,-0.0353415125434902
23:10,-0.029390221571140816
23:10,-0.022706464017579198
23:10,-0.015107123237502289
23:10,-0.007416224134773851
23:10,-0.0021058414209851675
23:10,-0.0021058414209851675
23:10,-0.00933894891045596
23:10,-0.019959714338033327
23:10,-0.02545321369712507
23:10,-0.020417505951290972
23:10,-0.006409082585607032
23:10,0.012726606848562534
23:10,0.03479216260758103
23:10,0.05557590184947812
23:10,0.06995055850576817
23:10,0.07553561618751145
23:10,0.07452847463834462
23:10,0.07178172495879875
23:10,0.07462003296099616
23:10,0.09091741439296833
23:10,0.12085698590001831
23:10,0.15262772386009887
23:10,0.17341146310199598
23:10,0.17945431239699688
23:10,0.1757004211682842
23:10,0.16956601355063175
23:10,0.16416407251419154
23:10,0.15748031496062992
23:10,0.14777513275956786
23:10,0.1355978758469145
23:10,0.1239699688701703
23:10,0.11719465299395715
23:10,0.11582127815418422
23:10,0.11600439479948728
23:10,0.11270829518403223
23:10,0.10263687969236404
23:10,0.08652261490569493
23:10,0.06821095037538913
23:10,0.0488921442959165
23:10,0.02527009705182201
23:10,-0.00018311664530305805
23:10,-0.0176707562717451
23:10,-0.023072697308185314
23:10,-0.021149972532503204
23:10,-0.01693828969053287
23:10,-0.012818165171214063
23:10,-0.010071415491668192
23:10,-0.009155832265152902
23:10,-0.009979857169016663
23:10,-0.012268815235304889
23:10,-0.014832448269547702
23:10,-0.016663614722578282
23:10,-0.019044131111518037
23:10,-0.023164255630836843
23:10,-0.027559055118110236
23:10,-0.029390221571140816
23:10,-0.027375938472807178
23:10,-0.023713605566746017
23:10,-0.022248672404321553
23:10,-0.022065555759018494
23:10,-0.019318806079472624
23:10,-0.01492400659219923
23:10,-0.01217725691265336
23:10,-0.011353232008789599
23:10,-0.011444790331441128
23:10,-0.013001281816517121
23:10,-0.017579197949093572
23:10,-0.02426295550265519
23:10,-0.029390221571140816
23:10,-0.030580479765610694
23:10,-0.02719282182750412
23:10,-0.019318806079472624
23:10,-0.00842336568394067
23:10,0.0015564914850759934
23:10,0.007690899102728438
23:10,0.008789598974546786
23:10,0.004944149423182567
23:10,-0.003387657938106574
23:10,-0.012635048525911005
23:10,-0.015473356528108405
23:10,-0.009979857169016663
23:10,-0.0017396081303790514
23:10,0.003570774583409632
23:10,0.004120124519318806
23:10,-0.0008240249038637612
23:10,-0.010712323750228896
23:10,-0.022157114081670023
23:10,-0.03003112982970152
23:10,-0.032411646218641274
23:10,-0.03012268815235305
23:10,-0.02444607214795825
23:10,-0.01776231459439663
23:10,-0.012818165171214063
23:10,-0.010712323750228896
23:10,-0.010529207104925838
23:10,-0.010895440395531954
23:10,-0.01117011536348654
23:10,-0.01117011536348654
23:10,-0.011078557040835012
23:10,-0.01034609045962278
23:10,-0.008148690715986083
23:10,-0.004486357809924922
23:10,-0.0026551913568943417
23:10,-0.007049990844167735
23:10,-0.016572056399926753
23:10,-0.02545321369712507
23:10,-0.03003112982970152
23:10,-0.03158762131477751
23:10,-0.03369346273576268
23:10,-0.037813587255081486
23:10,-0.04092657022523347
23:10,-0.03909540377220289
23:10,-0.03158762131477751
23:10,-0.01968503937007874
23:10,-0.006500640908258561
23:10,0.003296099615455045
23:10,0.008789598974546786
23:10,0.011811023622047244
23:10,0.01400842336568394
23:10,0.01602270646401758
23:10,0.017396081303790514
23:10,0.0176707562717451
23:10,0.017121406335835927
23:10,0.01693828969053287
23:10,0.018036989562351217
23:10,0.019959714338033327
23:10,0.02060062259659403
23:10,0.01968503937007874
23:10,0.01886101446621498
23:10,0.018403222852957334
23:10,0.015473356528108405
23:10,0.00659219923091009
23:10,-0.008057132393334554
23:10,-0.023713605566746017
23:10,-0.03543307086614173
23:10,-0.04184215345174876
23:10,-0.043673319904779344
23:10,-0.041567478483794176
23:10,-0.03460904596227797
23:10,-0.023896722212049075
23:10,-0.012726606848562534
23:10,-0.00750778245742538
23:10,-0.01409998168833547
23:10,-0.026551913568943417
23:10,-0.028291521699322468
23:10,-0.00933894891045596
23:10,0.03387657938106574
23:10,0.0984251968503937
23:10,0.16773484709760117
23:10,0.2255997070133675
23:10,0.26286394433253985
23:10,0.2631386193004944
23:10,0.2088445339681377
23:10,0.10648232924372826
23:10,-0.014283098333638528
23:10,-0.12076542757736679
23:10,-0.18412378685222486
23:10,-0.19062442776048344
23:10,-0.15738875663797838
23:10,-0.11527192821827505
23:10,-0.08084599890130013
23:10,-0.058688884819630104
23:10,-0.04898370261856803
23:10,-0.0466947445522798
23:10,-0.04468046145394616
23:10,-0.039827870353415125
23:10,-0.032320087895989745
23:10,-0.02517853872917048
23:10,-0.019318806079472624
23:10,-0.011444790331441128
23:10,9.155832265152902e-05
23:10,0.01309284013916865
23:10,0.023622047244094488
23:10,0.028566196667277055
23:10,0.02435451382530672
23:10,0.008698040651895257
23:10,-0.012360373557956418
23:10,-0.027742171763413294
23:10,-0.03076359641091375
23:10,-0.02353048892144296
23:10,-0.012360373557956418
23:10,-0.0030214246475004577
23:10,0.0031129829701519868
23:10,0.009888298846365134
23:10,0.01968503937007874
23:10,0.030214246475004577
23:10,0.03872917048159678
23:10,0.044588903131294634
23:10,0.04843435268265885
23:10,0.05044863578099249
23:10,0.05090642739425014
23:10,0.05127266068485625
23:10,0.05466031862296283
23:10,0.062168101080388206
23:10,0.06921809192455594
23:10,0.07169016663614723
23:10,0.07132393334554112
23:10,0.07498626625160228
23:10,0.08679728987364951
23:10,0.10364402124153085
23:10,0.11792711957516938
23:10,0.12543490203259478
23:10,0.12708295184032228
23:10,0.1268082768723677
23:10,0.12928035158395898
23:10,0.13770371726789965
23:10,0.15216993224684125
23:10,0.1684673136788134
23:10,0.18055301226881523
23:10,0.18696209485442228
23:10,0.18980040285661967
23:10,0.19062442776048344
23:10,0.18751144479033144
23:10,0.17670756271745103
23:10,0.1593114814136605
23:10,0.14072514191540011
23:10,0.12570957700054936
23:10,0.11399011170115364
23:10,0.10172129646584875
23:10,0.08524079838857353
23:10,0.06363303424281268
23:10,0.03918696209485442
23:10,0.017212964658487456
23:10,0.0020142830983336385
23:10,-0.00842336568394067
23:10,-0.01867789782091192
23:10,-0.028749313312580113
23:10,-0.03543307086614173
23:10,-0.03744735396447537
23:10,-0.03717267899652078
23:10,-0.03854605383629372
23:10,-0.04403955319538546
23:10,-0.05182201062076543
23:10,-0.057681743270463284
23:10,-0.05987914301409998
23:10,-0.05997070133675151
23:10,-0.0602453763047061
23:10,-0.062168101080388206
23:10,-0.0665629005676616
23:10,-0.07260574986266252
23:10,-0.07645119941402674
23:10,-0.0750778245742538
23:10,-0.06995055850576817
23:10,-0.06445705914667643
23:10,-0.0615271928218275
23:10,-0.06171030946713056
23:10,-0.06454861746932797
23:10,-0.07031679179637429
23:10,-0.07709210767258744
23:10,-0.08057132393334554
23:10,-0.07754989928584509
23:10,-0.06894341695660136
23:10,-0.05795641823841787
23:10,-0.04715253616553745
23:10,-0.04001098699871818
23:10,-0.03964475370811207
23:10,-0.044405786485991576
23:10,-0.04944149423182567
23:10,-0.05319538546053836
23:10,-0.057590184947811755
23:10,-0.06161875114447903
23:10,-0.06171030946713056
23:10,-0.05704083501190258
23:10,-0.05163889397546237
23:10,-0.04971616919978026
23:10,-0.05154733565281084
23:10,-0.05420252700970518
23:10,-0.054843435268265885
23:10,-0.05273759384728072
23:10,-0.049258377586522614
23:10,-0.04770188610144662
23:10,-0.0488921442959165
23:10,-0.04852591100531038
23:10,-0.04522981138985534
23:10,-0.04303241164621864
23:10,-0.04312396996887017
23:10,-0.04284929500091558
23:10,-0.040651895257278886
23:10,-0.03744735396447537
23:10,-0.03488372093023256
23:10,-0.03460904596227797
23:10,-0.03680644570591467
23:10,-0.04019410364402124
23:10,-0.043490203259476286
23:10,-0.04587071964841604
23:10,-0.04687786119758286
23:10,-0.047335652810840505
23:10,-0.04761032777879509
23:10,-0.04779344442409815
23:10,-0.04770188610144662
23:10,-0.04797656106940121
23:10,-0.04898370261856803
23:10,-0.050265519135689433
23:10,-0.05145577733015931
23:10,-0.052005127266068485
23:10,-0.051089544039553195
23:10,-0.04761032777879509
23:10,-0.041750595129097234
23:10,-0.0347006042849295
23:10,-0.02545321369712507
23:10,-0.01217725691265336
23:10,0.0028383080021973997
23:10,0.014740889946896173
23:10,0.02151620582310932
23:10,0.024903863761215894
23:10,0.026551913568943417
23:10,0.02719282182750412
23:10,0.02710126350485259
23:10,0.02627723860098883
23:10,0.023896722212049075
23:10,0.018403222852957334
23:10,0.008331807361289141
23:10,-0.0058597326496978575
23:10,-0.022798022340230727
23:10,-0.039736312030763596
23:10,-0.05182201062076543
23:10,-0.05594213514008423
23:10,-0.0523713605566746
23:10,-0.04413111151803699
23:10,-0.036073979124702435
23:10,-0.026826588536898004
23:10,-0.014832448269547702
23:10,-0.01117011536348654
23:10,-0.018403222852957334
23:10,-0.01785387291704816
23:10,0.005127266068485625
23:10,0.053744735396447536
23:10,0.1239699688701703
23:10,0.19282182750412014
23:10,0.2283464566929134
23:10,0.2274308734663981
23:10,0.20444973448086431
23:10,0.1577549899285845
23:10,0.08615638161508882
23:10,0.0021973997436366965
23:10,-0.08551547335652811
23:10,-0.1659036806445706
23:10,-0.2173594579747299
23:10,-0.2277971067570042
23:10,-0.20371726789965208
23:10,-0.16196667277055485
23:10,-0.12003296099615456
23:10,-0.0845083318073613
23:10,-0.055209668558872
23:10,-0.03552462918879326
23:10,-0.027833730086064823
23:10,-0.02911554660318623
23:10,-0.03488372093023256
23:10,-0.04184215345174876
23:10,-0.04696941952023439
23:10,-0.04779344442409815
23:10,-0.04239150338765794
23:10,-0.03076359641091375
23:10,-0.017487639626442043
23:10,-0.00750778245742538
23:10,-0.0014649331624244644
23:10,0.0013733748397729353
23:10,0.0005493499359091741
23:10,-0.0031129829701519868
23:10,-0.007599340780076909
23:10,-0.01034609045962278
23:10,-0.010071415491668192
23:10,-0.008057132393334554
23:10,-0.004852591100531038
23:10,0.0004577916132576451
23:10,0.007690899102728438
23:10,0.014832448269547702
23:10,0.02060062259659403
23:10,0.025086980406518952
23:10,0.028749313312580113
23:10,0.03103827137886834
23:10,0.0318622962827321
23:10,0.03259476286394433
23:10,0.03451748763962644
23:10,0.037813587255081486
23:10,0.04211682841970335
23:10,0.04797656106940121
23:10,0.05420252700970518
23:10,0.05786485991576634
23:10,0.059512909723493865
23:10,0.06546420069584326
23:10,0.08167002380516389
23:10,0.10364402124153085
23:10,0.12094854422266985
23:10,0.12955502655191356
23:10,0.13358359274858084
23:10,0.13678813404138437
23:10,0.14045046694744553
23:10,0.1441127998535067
23:10,0.14750045779161325
23:10,0.15097967405237137
23:10,0.15436733199047795
23:10,0.15537447353964476
23:10,0.15134590734297748
23:10,0.14264786669108223
23:10,0.13019593481047428
23:10,0.11362387841054752
23:10,0.09265702252334737
23:10,0.0674784837941769
23:10,0.03955319538546054
23:10,0.014649331624244644
23:10,-0.00018311664530305805
23:10,-0.004394799487273393
23:10,-0.003479216260758103
23:10,-0.0027467496795458707
23:10,-0.005676616004394799
23:10,-0.013367515107123237
23:10,-0.02536165537447354
23:10,-0.03836293719099066
23:10,-0.04779344442409815
23:10,-0.05154733565281084
23:10,-0.05218824391137154
23:10,-0.05347006042849295
23:10,-0.057498626625160226
23:10,-0.06482329243728255
23:10,-0.07324665812122322
23:10,-0.07938106573887567
23:10,-0.08139534883720931
23:10,-0.0788317158029665
23:10,-0.07141549166819264
23:10,-0.06161875114447903
23:10,-0.053927852041750594
23:10,-0.05081486907159861
23:10,-0.051181102362204724
23:10,-0.05347006042849295
23:10,-0.056674601721296465
23:10,-0.05987914301409998
23:10,-0.06317524262955503
23:10,-0.06610510895440395
23:10,-0.06738692547152536
23:10,-0.0665629005676616
23:10,-0.06509796740523714
23:10,-0.06473173411463103
23:10,-0.0650064090825856
23:10,-0.06518952572788866
23:10,-0.06518952572788866
23:10,-0.06518952572788866
23:10,-0.06381615088811574
23:10,-0.05786485991576634
23:10,-0.0460538362937191
23:10,-0.03277787950924739
23:10,-0.02444607214795825
23:10,-0.022798022340230727
23:10,-0.024903863761215894
23:10,-0.027467496795458707
23:10,-0.02911554660318623
23:10,-0.029573338216443874
23:10,-0.028566196667277055
23:10,-0.026551913568943417
23:10,-0.023896722212049075
23:10,-0.02160776414576085
23:10,-0.02069218091924556
23:10,-0.019959714338033327
23:10,-0.01675517304522981
23:10,-0.012909723493865592
23:10,-0.010895440395531954
23:10,-0.010712323750228896
23:10,-0.010803882072880425
23:10,-0.01034609045962278
23:10,-0.009522065555759018
23:10,-0.009796740523713605
23:10,-0.012085698590001831
23:10,-0.015381798205456876
23:10,-0.01794543123969969
23:10,-0.01886101446621498
23:10,-0.01858633949826039
23:10,-0.01776231459439663
23:10,-0.016572056399926753
23:10,-0.014283098333638528
23:10,-0.010071415491668192
23:10,-0.004852591100531038
23:10,-0.0014649331624244644
23:10,-0.0015564914850759934
23:10,-0.004394799487273393
23:10,-0.008240249038637612
23:10,-0.012268815235304889
23:10,-0.016572056399926753
23:10,-0.021790880791063907
23:10,-0.02627723860098883
23:10,-0.027742171763413294
23:10,-0.026551913568943417
23:10,-0.02527009705182201
23:10,-0.024812305438564365
23:10,-0.024171397180003662
23:10,-0.021973997436366965
23:10,-0.018311664530305805
23:10,-0.013001281816517121
23:10,-0.005401941036440212
23:10,0.003296099615455045
23:10,0.00933894891045596
23:10,0.01117011536348654
23:10,0.01117011536348654
23:10,0.012268815235304889
23:10,0.015107123237502289
23:10,0.018494781175608863
23:10,0.021149972532503204
23:10,0.022157114081670023
23:10,0.01968503937007874
23:10,0.013459073429774766
23:10,0.006866874198864677
23:10,0.0029298663248489287
23:10,0.0020142830983336385
23:10,0.0018311664530305805
23:10,-0.0006409082585607032
23:10,-0.007233107489470793
23:10,-0.015656473173411463
23:10,-0.021790880791063907
23:10,-0.02353048892144296
23:10,-0.022065555759018494
23:10,-0.020234389305987914
23:10,-0.02234023072697308
23:10,-0.03012268815235305
23:10,-0.03195385460538363
23:10,-0.0059512909723493865
23:10,0.057590184947811755
23:10,0.14246475004577916
23:10,0.2176341329426845
23:10,0.2590184947811756
23:10,0.2559970701336752
23:10,0.2123237502288958
23:10,0.14804980772752244
23:10,0.08221937374107306
23:10,0.014374656656290057
23:10,-0.06445705914667643
23:10,-0.14338033327229446
23:10,-0.1943783189891961
23:10,-0.20335103460904597
23:10,-0.17872184581578465
23:10,-0.13907709210767258
23:10,-0.10217908807910639
23:10,-0.07846548251236038
23:10,-0.0650064090825856
23:10,-0.0517304522981139
23:10,-0.036165537447353964
23:10,-0.0233473722761399
23:10,-0.01501556491485076
23:10,-0.009705182201062076
23:10,-0.006317524262955503
23:10,-0.004761032777879509
23:10,-0.00659219923091009
23:10,-0.011353232008789599
23:10,-0.01501556491485076
23:10,-0.015198681560153818
23:10,-0.013275956784471708
23:10,-0.01309284013916865
23:10,-0.014466214978941586
23:10,-0.011719465299395715
23:10,-0.0024720747115912836
23:10,0.007874015748031496
23:10,0.013825306720380882
23:10,0.015656473173411463
23:10,0.017304522981138985
23:10,0.021241530855154733
23:10,0.026735030214246475
23:10,0.031496062992125984
23:10,0.034059696026368796
23:10,0.033327229445156564
23:10,0.030397363120307636
23:10,0.029390221571140816
23:10,0.03213697125068669
23:10,0.035249954220838674
23:10,0.03543307086614173
23:10,0.034151254349020325
23:10,0.036165537447353964
23:10,0.046328511261673685
23:10,0.06537264237319172
23:10,0.08890313129463469
23:10,0.11142647866691083
23:10,0.12818165171214063
23:10,0.1381615088811573
23:10,0.1438381248855521
23:10,0.14768357443691632
23:10,0.14978941585790148
23:10,0.14988097418055302
23:10,0.14933162424464383
23:10,0.15088811572971983
23:10,0.1577549899285845
23:10,0.1691082219373741
23:10,0.17991210401025454
23:10,0.1864127449185131
23:10,0.18815235304889213
23:10,0.18412378685222486
23:10,0.17203808826222303
23:10,0.152993957150705
23:10,0.13175242629555026
23:10,0.11151803698956235
23:10,0.0943050723310749
23:10,0.08286028199963377
23:10,0.07581029115546603
23:10,0.06766160043947995
23:10,0.05246291887932613
23:10,0.030580479765610694
23:10,0.009522065555759018
23:10,-0.004761032777879509
23:10,-0.014832448269547702
23:10,-0.023988280534700604
23:10,-0.032320087895989745
23:10,-0.03946163706280901
23:10,-0.04468046145394616
23:10,-0.04751876945614356
23:10,-0.049166819263871085
23:10,-0.05081486907159861
23:10,-0.0523713605566746
23:10,-0.052829152169932246
23:10,-0.05090642739425014
23:10,-0.045321369712506866
23:10,-0.0381798205456876
23:10,-0.033235671122505035
23:10,-0.03167917963742904
23:10,-0.031312946346822926
23:10,-0.030672038088262223
23:10,-0.029664896539095403
23:10,-0.028383080021973997
23:10,-0.025636330342428126
23:10,-0.021882439113715436
23:10,-0.020325947628639443
23:10,-0.02353048892144296
23:10,-0.030488921442959165
23:10,-0.03772202893242996
23:10,-0.04092657022523347
23:10,-0.03662332906061161
23:10,-0.02710126350485259
23:10,-0.019044131111518037
23:10,-0.015656473173411463
23:10,-0.015290239882805347
23:10,-0.015656473173411463
23:10,-0.016114264786669108
23:10,-0.016388939754623695
23:10,-0.015473356528108405
23:10,-0.012451931880607947
23:10,-0.007965574070683025
23:10,-0.003204541292803516
23:10,0.0007324665812122322
23:10,0.003296099615455045
23:10,0.003296099615455045
23:10,0.0006409082585607032
23:10,-0.003387657938106574
23:10,-0.008240249038637612
23:10,-0.013001281816517121
23:10,-0.01593114814136605
23:10,-0.01593114814136605
23:10,-0.01309284013916865
23:10,-0.009064273942501373
23:10,-0.006317524262955503
23:10,-0.006317524262955503
23:10,-0.009064273942501373
23:10,-0.01309284013916865
23:10,-0.016388939754623695
23:10,-0.018311664530305805
23:10,-0.019227247756821095
23:10,-0.01886101446621498
23:10,-0.01675517304522981
23:10,-0.013367515107123237
23:10,-0.010712323750228896
23:10,-0.010986998718183483
23:10,-0.016663614722578282
23:10,-0.029573338216443874
23:10,-0.04660318622962827
23:10,-0.05923823475553928
23:10,-0.06381615088811574
23:10,-0.0637245925654642
23:10,-0.0630836843069035
23:10,-0.06189342611243362
23:10,-0.057590184947811755
23:10,-0.04898370261856803
23:10,-0.038820728804248306
23:10,-0.031129829701519868
23:10,-0.028657754989928584
23:10,-0.031404504669474455
23:10,-0.03744735396447537
23:10,-0.043490203259476286
23:10,-0.047244094488188976
23:10,-0.04880058597326497
23:10,-0.050082402490386375
23:10,-0.05081486907159861
23:10,-0.04806811939205274
23:10,-0.04120124519318806
23:10,-0.034242812671671854
23:10,-0.03012268815235305
23:10,-0.027650613440761765
23:10,-0.024537630470609778
23:10,-0.01959348104742721
23:10,-0.013275956784471708
23:10,-0.007965574070683025
23:10,-0.0061344076176524445
23:10,-0.008057132393334554
23:10,-0.011627906976744186
23:10,-0.015564914850759934
23:10,-0.02169932246841238
23:10,-0.031129829701519868
23:10,-0.042574620032960996
23:10,-0.0545687603003113
23:10,-0.06518952572788866
23:10,-0.07123237502288958
23:10,-0.07214795824940487
23:10,-0.0715986083134957
23:10,-0.07123237502288958
23:10,-0.06610510895440395
23:10,-0.05356161875114448
23:10,-0.04046877861197583
23:10,-0.03351034609045962
23:10,-0.026460355246291888
23:10,-0.0010071415491668192
23:10,0.0517304522981139
23:10,0.12259659403039737
23:10,0.19538546053836295
23:10,0.24702435451382532
23:10,0.2546236952939022
23:10,0.2079289507416224
23:10,0.11408167002380516
23:10,-0.0028383080021973997
23:10,-0.11838491118842703
23:10,-0.21030946713056217
23:10,-0.2517853872917048
23:10,-0.2369529390221571
23:10,-0.19611792711957518
23:10,-0.1598608313495697
23:10,-0.1305621681010804
23:10,-0.10080571323933346
23:10,-0.07516938289690533
23:10,-0.06180186778978209
23:10,-0.05832265152902399
23:10,-0.05649148507599341
23:10,-0.05227980223402307
23:10,-0.04761032777879509
23:10,-0.045321369712506866
23:10,-0.04596227797106757
23:10,-0.04788500274674968
23:10,-0.049075260941219556
23:10,-0.04797656106940121
23:10,-0.04559604468046145
23:10,-0.043673319904779344
23:10,-0.04220838674235488
23:10,-0.039003845449551364
23:10,-0.03286943783189892
23:10,-0.02536165537447354
23:10,-0.019227247756821095
23:10,-0.01583958981871452
23:10,-0.014649331624244644
23:10,-0.01400842336568394
23:10,-0.011719465299395715
23:10,-0.00750778245742538
23:10,-0.0027467496795458707
23:10,0.0020142830983336385
23:10,0.00842336568394067
23:10,0.01684673136788134
23:10,0.025911005310382713
23:10,0.03552462918879326
23:10,0.04376487822743087
23:10,0.046511627906976744
23:10,0.04486357809924922
23:10,0.044588903131294634
23:10,0.05044863578099249
23:10,0.06363303424281268
23:10,0.08203625709577
23:10,0.10071415491668192
23:10,0.11426478666910822
