Timestamp,ECG Voltage (mV)
00:20,0.6089544039553195
00:20,0.6349569675883537
00:20,0.6605017396081304
00:20,0.6758835378135872
00:20,0.6724958798754807
00:20,0.6524446072147958
00:20,0.6267167185497162
00:20,0.6053836293719099
00:20,0.5893609229078923
00:20,0.5767258743819813
00:20,0.5690349752792528
00:20,0.5652810840505402
00:20,0.5583226515290239
00:20,0.5415674784837942
00:20,0.5144662149789416
00:20,0.482695477018861
00:20,0.4555026551913569
00:20,0.4381981322102179
00:20,0.42574620032960997
00:20,0.4069767441860465
00:20,0.3770371726789965
00:20,0.3425196850393701
00:20,0.31285478850027465
00:20,0.28758469144845267
00:20,0.2591100531038271
00:20,0.22550814869071598
00:20,0.19071598608313495
00:20,0.15482512360373557
00:20,0.11756088628456327
00:20,0.08240249038637612
00:20,0.04989928584508332
00:20,0.02069218091924556
00:20,-0.0029298663248489287
00:20,-0.023805163889397546
00:20,-0.04486357809924922
00:20,-0.062351217725691264
00:20,-0.07452847463834462
00:20,-0.08670573155099799
00:20,-0.10373557956418239
00:20,-0.12433620216077641
00:20,-0.14502838308002197
00:20,-0.1621497894158579
00:20,-0.17194652993957152
00:20,-0.17469327961911738
00:20,-0.17588353781358726
00:20,-0.17972898736495146
00:20,-0.1867789782091192
00:20,-0.19602636879692364
00:20,-0.208203625709577
00:20,-0.2262406152719282
00:20,-0.25004577916132575
00:20,-0.2747665262772386
00:20,-0.294909357260575
00:20,-0.30717817249587986
00:20,-0.31239699688701705
00:20,-0.317066471342245
00:20,-0.3290606116095953
00:20,-0.34746383446255263
00:20,-0.3637612158945248
00:20,-0.3728254898370262
00:20,-0.37648782274308734
00:20,-0.3804248306171031
00:20,-0.38939754623695294
00:20,-0.4049624610877129
00:20,-0.42318256729536713
00:20,-0.43700787401574803
00:20,-0.4425929316974913
00:20,-0.44250137337483975
00:20,-0.4419520234389306
00:20,-0.4458890313129463
00:20,-0.4570591466764329
00:20,-0.4710675700421168
00:20,-0.4783006775315876
00:20,-0.4722578282365867
00:20,-0.4556857718366599
00:20,-0.4404870902765061
00:20,-0.43929683208203624
00:20,-0.45101629738143195
00:20,-0.46264420435817616
00:20,-0.46639809558688883
00:20,-0.4645669291338583
00:20,-0.46172862113166085
00:20,-0.45971433803332723
00:20,-0.4570591466764329
00:20,-0.45193188060794726
00:20,-0.4417689067936275
00:20,-0.4244643838124886
00:20,-0.4046877861197583
00:20,-0.39159494598058964
00:20,-0.38756637978392233
00:20,-0.38848196301043764
00:20,-0.3910455960446805
00:20,-0.3932429957883172
00:20,-0.3934261124336202
00:20,-0.39031312946346824
00:20,-0.38399560520051274
00:20,-0.376945614356345
00:20,-0.3716352316425563
00:20,-0.36769822376854056
00:20,-0.3629371909906611
00:20,-0.35698590001831165
00:20,-0.3526826588536898
00:20,-0.35167551730452296
00:20,-0.35341512543490206
00:20,-0.3562534334370994
00:20,-0.35726057498626623
00:20,-0.3488372093023256
00:20,-0.3242995788317158
00:20,-0.2894158579014832
00:20,-0.2599340780076909
00:20,-0.24427760483427943
00:20,-0.23924189708844534
00:20,-0.23841787218458158
00:20,-0.2375022889580663
00:20,-0.2353964475370811
00:20,-0.23338216443874749
00:20,-0.23301593114814137
00:20,-0.23420618934261125
00:20,-0.23466398095586888
00:20,-0.23127632301776233
00:20,-0.22386009888298847
00:20,-0.21690166636147226
00:20,-0.21378868339132026
00:20,-0.21131660867972898
00:20,-0.20289324299578831
00:20,-0.18925105292071048
00:20,-0.17844717084783007
00:20,-0.1750595129097235
00:20,-0.17679912104010254
00:20,-0.17872184581578465
00:20,-0.17487639626442045
00:20,-0.16095953122138804
00:20,-0.14045046694744553
00:20,-0.12415308551547335
00:20,-0.11875114447903315
00:20,-0.12323750228895806
00:20,-0.13358359274858084
00:20,-0.14713422450100713
00:20,-0.16105108954403954
00:20,-0.17139718000366233
00:20,-0.1759750961362388
00:20,-0.17615821278154184
00:20,-0.17331990477934445
00:20,-0.1674601721296466
00:20,-0.1583043398644937
00:20,-0.14878227430873467
00:20,-0.1463101995971434
00:20,-0.15281084050540195
00:20,-0.16068485625343343
00:20,-0.15958615638161508
00:20,-0.13797839223585423
00:20,-0.08569859000183117
00:20,-0.004303241164621864
00:20,0.09183299761948362
00:20,0.18055301226881523
00:20,0.23603735579564183
00:20,0.23924189708844534
00:20,0.18220106207654277
00:20,0.07077458340963194
00:20,-0.06601355063175243
00:20,-0.1927302691814686
00:20,-0.28337300860648235
00:20,-0.3220106207654276
00:20,-0.3109320637245926
00:20,-0.2703717267899652
00:20,-0.21900750778245742
00:20,-0.17029848013184398
00:20,-0.1371543673319905
00:20,-0.12021607764145761
00:20,-0.10584142098516755
00:20,-0.08395898187145212
00:20,-0.06106940120856986
00:20,-0.05163889397546237
00:20,-0.05777330159311481
00:20,-0.06766160043947995
00:20,-0.07123237502288958
00:20,-0.0665629005676616
00:20,-0.05557590184947812
00:20,-0.04028566196667277
00:20,-0.023896722212049075
00:20,-0.011353232008789599
00:20,-0.00558505768174327
00:20,-0.004120124519318806
00:20,-0.0031129829701519868
00:20,-0.00018311664530305805
00:20,0.004486357809924922
00:20,0.009888298846365134
00:20,0.014283098333638528
00:20,0.017396081303790514
00:20,0.019959714338033327
00:20,0.020875297564548617
00:20,0.018036989562351217
00:20,0.012543490203259476
00:20,0.00842336568394067
00:20,0.009888298846365134
00:20,0.016572056399926753
00:20,0.02353048892144296
00:20,0.02911554660318623
00:20,0.03827137886833913
00:20,0.05401941036440212
00:20,0.07114081670023806
00:20,0.0823109320637246
00:20,0.08533235671122505
00:20,0.08377586522614906
00:20,0.08203625709577
00:20,0.083592748580846
00:20,0.09064273942501373
00:20,0.10117194652993958
00:20,0.11032777879509248
00:20,0.11701153634865409
00:20,0.1258011353232009
00:20,0.13916865043032411
00:20,0.15409265702252334
00:20,0.1659036806445706
00:20,0.17148873832631387
00:20,0.1715802966489654
00:20,0.1700238051638894
00:20,0.17203808826222303
00:20,0.18000366233290607
00:20,0.18970884453396814
00:20,0.19190624427760483
00:20,0.18366599523896723
00:20,0.16919978026002563
00:20,0.1510712323750229
00:20,0.12918879326130744
00:20,0.10584142098516755
00:20,0.0864310565830434
00:20,0.07571873283281451
00:20,0.0715986083134957
00:20,0.06683757553561619
00:20,0.058414209851675516
00:20,0.04797656106940121
00:20,0.03589086247939938
00:20,0.019501922724775682
00:20,-0.0014649331624244644
00:20,-0.02151620582310932
00:20,-0.035158395898187145
00:20,-0.04184215345174876
00:20,-0.04403955319538546
00:20,-0.04284929500091558
00:20,-0.03863761215894525
00:20,-0.03277787950924739
00:20,-0.029298663248489287
00:20,-0.03177073796008057
00:20,-0.04019410364402124
00:20,-0.05163889397546237
00:20,-0.059512909723493865
00:20,-0.05594213514008423
00:20,-0.042666178355612525
00:20,-0.03085515473356528
00:20,-0.026460355246291888
00:20,-0.02636879692364036
00:20,-0.025544772019776597
00:20,-0.022981138985533785
00:20,-0.02252334737227614
00:20,-0.02710126350485259
00:20,-0.02993957150704999
00:20,-0.023896722212049075
00:20,-0.013550631752426295
00:20,-0.007782457425379967
00:20,-0.01117011536348654
00:20,-0.02353048892144296
00:20,-0.038820728804248306
00:20,-0.0488921442959165
00:20,-0.05090642739425014
00:20,-0.046236952939022156
00:20,-0.03937007874015748
00:20,-0.03497527925288409
00:20,-0.03360190441311115
00:20,-0.0325032045412928
00:20,-0.02810840505401941
00:20,-0.01776231459439663
00:20,-0.0024720747115912836
00:20,0.01126167368613807
00:20,0.018494781175608863
00:20,0.020234389305987914
00:20,0.020142830983336385
00:20,0.02069218091924556
00:20,0.02261490569492767
00:20,0.02545321369712507
00:20,0.027650613440761765
00:20,0.027925288408716352
00:20,0.025636330342428126
00:20,0.021333089177806262
00:20,0.019044131111518037
00:20,0.022157114081670023
00:20,0.030580479765610694
00:20,0.041750595129097234
00:20,0.04944149423182567
00:20,0.04577916132576451
00:20,0.032411646218641274
00:20,0.019959714338033327
00:20,0.014557773301593115
00:20,0.014466214978941586
00:20,0.016480498077275224
00:20,0.018220106207654276
00:20,0.018128547885002746
00:20,0.013733748397729353
00:20,0.003479216260758103
00:20,-0.009888298846365134
00:20,-0.020234389305987914
00:20,-0.024537630470609778
00:20,-0.02527009705182201
00:20,-0.02527009705182201
00:20,-0.025819446987731184
00:20,-0.027833730086064823
00:20,-0.03268632118659586
00:20,-0.04046877861197583
00:20,-0.048342794360007324
00:20,-0.052829152169932246
00:20,-0.053836293719099065
00:20,-0.05401941036440212
00:20,-0.05466031862296283
00:20,-0.05557590184947812
00:20,-0.05694927668925105
00:20,-0.058505768174327046
00:20,-0.05905511811023622
00:20,-0.0574070683025087
00:20,-0.05365317707379601
00:20,-0.0488921442959165
00:20,-0.04413111151803699
00:20,-0.03964475370811207
00:20,-0.03744735396447537
00:20,-0.03909540377220289
00:20,-0.04229994506500641
00:20,-0.04477201977659769
00:20,-0.044497344808643105
00:20,-0.04028566196667277
00:20,-0.0347006042849295
00:20,-0.030397363120307636
00:20,-0.02719282182750412
00:20,-0.023622047244094488
00:20,-0.019410364402124153
00:20,-0.015381798205456876
00:20,-0.012726606848562534
00:20,-0.011994140267350302
00:20,-0.012085698590001831
00:20,-0.01318439846182018
00:20,-0.01858633949826039
00:20,-0.031496062992125984
00:20,-0.049166819263871085
00:20,-0.06583043398644937
00:20,-0.08047976561069402
00:20,-0.09384728071781726
00:20,-0.10245376304706098
00:20,-0.10510895440395532
00:20,-0.10602453763047061
00:20,-0.10437648782274309
00:20,-0.09741805530122688
00:20,-0.09009338948910456
00:20,-0.08963559787584692
00:20,-0.09265702252334737
00:20,-0.08194469877311848
00:20,-0.035158395898187145
00:20,0.05530122688152353
00:20,0.1674601721296466
00:20,0.2591100531038271
00:20,0.2971067570042117
00:20,0.26799121040102547
00:20,0.17533418787767807
00:20,0.05090642739425014
00:20,-0.05813953488372093
00:20,-0.1371543673319905
00:20,-0.198681560153818
00:20,-0.23786852224867241
00:20,-0.2444607214795825
00:20,-0.22697308185314044
00:20,-0.19355429408533237
00:20,-0.1438381248855521
00:20,-0.0857901483244827
00:20,-0.03662332906061161
00:20,-0.006409082585607032
00:20,0.006775315876213148
00:20,0.009979857169016663
00:20,0.009064273942501373
00:20,0.007599340780076909
00:20,0.007141549166819264
00:20,0.009155832265152902
00:20,0.015473356528108405
00:20,0.027650613440761765
00:20,0.0438564365500824
00:20,0.05777330159311481
00:20,0.06317524262955503
00:20,0.059512909723493865
00:20,0.05063175242629555
00:20,0.04147592016114265
00:20,0.035066837575535616
00:20,0.03296099615455045
00:20,0.03744735396447537
00:20,0.05054019410364402
00:20,0.06976744186046512
00:20,0.08936092290789233
00:20,0.10455960446804614
00:20,0.11298297015198681
00:20,0.11563816150888116
00:20,0.11618751144479034
00:20,0.11673686138069951
00:20,0.11801867789782092
00:20,0.12094854422266985
00:20,0.1258011353232009
00:20,0.1305621681010804
00:20,0.13330891778062626
00:20,0.1353232008789599
00:20,0.1409998168833547
00:20,0.1527192821827504
00:20,0.16700238051638894
00:20,0.17890496246108772
00:20,0.18842702801684674
00:20,0.197125068668742
00:20,0.2057315509979857
00:20,0.2169932246841238
00:20,0.23365683940670207
00:20,0.2549899285845083
00:20,0.2763230177623146
00:20,0.2928035158395898
00:20,0.3034242812671672
00:20,0.30745284746383444
00:20,0.3010437648782274
00:20,0.2830067753158762
00:20,0.26039186962094857
00:20,0.24327046328511262
00:20,0.23640358908624795
00:20,0.23905878044314227
00:20,0.25004577916132575
00:20,0.264969785753525
00:20,0.2751327595678447
00:20,0.2709210767258744
00:20,0.24803149606299213
00:20,0.21470426661783557
00:20,0.1864127449185131
00:20,0.1706647134224501
00:20,0.1634316059329793
00:20,0.15839589818714522
00:20,0.14997253250320455
00:20,0.13175242629555026
00:20,0.10117194652993958
00:20,0.06784471708478301
00:20,0.04568760300311298
00:20,0.03854605383629372
00:20,0.038912287126899835
00:20,0.04010254532136971
00:20,0.040743453579930415
00:20,0.041659036806445705
00:20,0.041750595129097234
00:20,0.03488372093023256
00:20,0.015107123237502289
00:20,-0.011536348654092657
00:20,-0.02984801318439846
00:20,-0.03305255447720198
00:20,-0.027742171763413294
00:20,-0.02234023072697308
00:20,-0.019868156015381798
00:20,-0.018952572788866508
00:20,-0.019959714338033327
00:20,-0.02636879692364036
00:20,-0.04046877861197583
00:20,-0.05731550997985717
00:20,-0.06839406702069219
00:20,-0.07123237502288958
00:20,-0.069401208569859
00:20,-0.06692913385826772
00:20,-0.06564731734114632
00:20,-0.06491485075993408
00:20,-0.062168101080388206
00:20,-0.054934993590917414
00:20,-0.04376487822743087
00:20,-0.033235671122505035
00:20,-0.027467496795458707
00:20,-0.02517853872917048
00:20,-0.02252334737227614
00:20,-0.017579197949093572
00:20,-0.012635048525911005
00:20,-0.012360373557956418
00:20,-0.01794543123969969
00:20,-0.02700970518220106
00:20,-0.03561618751144479
00:20,-0.0403772202893243
00:20,-0.038912287126899835
00:20,-0.032320087895989745
00:20,-0.02426295550265519
00:20,-0.01867789782091192
00:20,-0.016663614722578282
00:20,-0.016663614722578282
00:20,-0.017029848013184398
00:20,-0.017304522981138985
00:20,-0.01776231459439663
00:20,-0.01858633949826039
00:20,-0.019959714338033327
00:20,-0.02142464750045779
00:20,-0.022065555759018494
00:20,-0.022065555759018494
00:20,-0.022065555759018494
00:20,-0.02243178904962461
00:20,-0.02261490569492767
00:20,-0.02069218091924556
00:20,-0.01492400659219923
00:20,-0.006958432521516206
00:20,-0.0013733748397729353
00:20,-0.00027467496795458707
00:20,-0.0018311664530305805
00:20,-0.003296099615455045
00:20,-0.003937007874015748
00:20,-0.004028566196667277
00:20,-0.003296099615455045
00:20,-0.0009155832265152902
00:20,0.0030214246475004577
00:20,0.007965574070683025
00:20,0.01318439846182018
00:20,0.018311664530305805
00:20,0.02435451382530672
00:20,0.03158762131477751
00:20,0.037905145577733015
00:20,0.0403772202893243
00:20,0.03772202893242996
00:20,0.032320087895989745
00:20,0.029390221571140816
00:20,0.03296099615455045
00:20,0.04129280351583959
00:20,0.04934993590917414
00:20,0.05420252700970518
00:20,0.057498626625160226
00:20,0.06253433437099433
00:20,0.06903497527925288
00:20,0.07388756637978393
00:20,0.07571873283281451
00:20,0.07562717451016297
00:20,0.07425379967039004
00:20,0.07114081670023806
00:20,0.06711225050357078
00:20,0.06363303424281268
00:20,0.06079472624061527
00:20,0.05612525178538729
00:20,0.04843435268265885
00:20,0.04147592016114265
00:20,0.040743453579930415
00:20,0.047335652810840505
00:20,0.05832265152902399
00:20,0.06647134224501007
00:20,0.06583043398644937
00:20,0.0650064090825856
00:20,0.08057132393334554
00:20,0.12085698590001831
00:20,0.18806079472624063
00:20,0.28026002563633035
00:20,0.375389122871269
00:20,0.43233839956052006
00:20,0.4297747665262772
00:20,0.37337483977293534
00:20,0.27018861014466217
00:20,0.13669657571873284
00:20,0.00842336568394067
00:20,-0.08469144845266435
00:20,-0.13111151803698956
00:20,-0.12406152719282183
00:20,-0.07059146676432888
00:20,-0.0059512909723493865
00:20,0.039736312030763596
00:20,0.06894341695660136
00:20,0.08945248123054386
00:20,0.10135506317524264
00:20,0.10794726240615272
00:20,0.11728621131660869
00:20,0.1350485259110053
00:20,0.157663431605933
00:20,0.1750595129097235
00:20,0.18494781175608863
00:20,0.19254715253616553
00:20,0.20042116828419704
00:20,0.20866141732283464
00:20,0.21626075810291157
00:20,0.21681010803882073
00:20,0.20371726789965208
00:20,0.17890496246108772
00:20,0.152993957150705
00:20,0.1359641091375206
00:20,0.12662516022706463
00:20,0.11472257828236587
00:20,0.09329793078190808
00:20,0.061435634499175974
00:20,0.023072697308185314
00:20,-0.012726606848562534
00:20,-0.039827870353415125
00:20,-0.05978758469144845
00:20,-0.07599340780076909
00:20,-0.08945248123054386
00:20,-0.10190441311115181
00:20,-0.11774400292986632
00:20,-0.13898553378502107
00:20,-0.1624244643838125
00:20,-0.1826588536898004
00:20,-0.1977659769273027
00:20,-0.21030946713056217
00:20,-0.22248672404321554
00:20,-0.23319904779344441
00:20,-0.23933345541109688
00:20,-0.2394250137337484
00:20,-0.23466398095586888
00:20,-0.22724775682109505
00:20,-0.21854971616919977
00:20,-0.2104010254532137
00:20,-0.20481596777147043
00:20,-0.2003296099615455
00:20,-0.1927302691814686
00:20,-0.18174327046328512
00:20,-0.1716718549716169
00:20,-0.16553744735396447
00:20,-0.16269913935176708
00:20,-0.1615088811572972
00:20,-0.16095953122138804
00:20,-0.1603186229628273
00:20,-0.1602270646401758
00:20,-0.16324848928767624
00:20,-0.17203808826222303
00:20,-0.18403222852957335
00:20,-0.19410364402124153
00:20,-0.20151986815601539
00:20,-0.2100347921626076
00:20,-0.22074711591283647
00:20,-0.2306354147592016
00:20,-0.23576268082768723
00:20,-0.23924189708844534
00:20,-0.2527925288408716
00:20,-0.2841970335103461
00:20,-0.3205456876030031
00:20,-0.3382164438747482
00:20,-0.33171580296648967
00:20,-0.31587621314777514
00:20,-0.3036989562351218
00:20,-0.29674052371360554
00:20,-0.2911554660318623
00:20,-0.2852041750595129
00:20,-0.280717817249588
00:20,-0.27934444240981504
00:20,-0.2798022340230727
00:20,-0.2804431422816334
00:20,-0.2794360007324666
00:20,-0.27586522614905695
00:20,-0.2711041933711774
00:20,-0.2676249771104193
00:20,-0.2657938106573888
00:20,-0.26423731917231275
00:20,-0.26203991942867605
00:20,-0.26011719465299393
00:20,-0.25965940303973634
00:20,-0.2612158945248123
00:20,-0.2646951107855704
00:20,-0.2697308185314045
00:20,-0.2734847097601172
00:20,-0.2711041933711774
00:20,-0.2631386193004944
00:20,-0.2559055118110236
00:20,-0.25325032045412926
00:20,-0.2537996703900385
00:20,-0.2548068119392053
00:20,-0.25407434535799306
00:20,-0.25004577916132575
00:20,-0.24272111334920343
00:20,-0.2343893059879143
00:20,-0.22770554843435267
00:20,-0.22395165720564
00:20,-0.22184581578465482
00:20,-0.21909906610510896
00:20,-0.21589452481230545
00:20,-0.21369712506866875
00:20,-0.2116828419703351
00:20,-0.20701336751510713
00:20,-0.19465299395715072
00:20,-0.1713056216810108
00:20,-0.13926020875297565
00:20,-0.10529207104925838
00:20,-0.07974729902948179
00:20,-0.07150704999084417
00:20,-0.0772752243178905
00:20,-0.0857901483244827
00:20,-0.09009338948910456
00:20,-0.08908624793993775
00:20,-0.08194469877311848
00:20,-0.06866874198864677
00:20,-0.0523713605566746
00:20,-0.03845449551364219
00:20,-0.029207104925837758
00:20,-0.022706464017579198
00:20,-0.01583958981871452
00:20,-0.008606482329243728
00:20,-0.003845449551364219
00:20,-0.0017396081303790514
00:20,0.0007324665812122322
00:20,0.006317524262955503
00:20,0.014191540010986999
00:20,0.02151620582310932
00:20,0.027375938472807178
00:20,0.033327229445156564
00:20,0.041567478483794176
00:20,0.05227980223402307
00:20,0.06354147592016114
00:20,0.07123237502288958
00:20,0.07370444973448087
00:20,0.07205639992675335
00:20,0.06711225050357078
00:20,0.06097784288591833
00:20,0.05649148507599341
00:20,0.05447720197765977
00:20,0.05438564365500824
00:20,0.05639992675334188
00:20,0.06180186778978209
00:20,0.06949276689251054
00:20,0.07626808276872368
00:20,0.07993041567478484
00:20,0.08084599890130013
00:20,0.07965574070683025
00:20,0.07782457425379967
00:20,0.07599340780076909
00:20,0.07407068302508699
00:20,0.07260574986266252
00:20,0.07352133308917781
00:20,0.07993041567478484
00:20,0.09329793078190808
00:20,0.11151803698956235
00:20,0.12937190990661052
00:20,0.14090825856070316
00:20,0.1453946163706281
00:20,0.1464017579197949
00:20,0.14438747482146128
00:20,0.13587255081486907
00:20,0.11920893609229079
00:20,0.10080571323933346
00:20,0.08981871452114998
00:20,0.08734663980955869
00:20,0.08743819813221022
00:20,0.08698040651895257
00:20,0.08405054019410364
00:20,0.07489470792895074
00:20,0.05905511811023622
00:20,0.04587071964841604
00:20,0.04660318622962827
00:20,0.06161875114447903
00:20,0.08130379051455777
00:20,0.10236220472440945
00:20,0.13477385094305072
00:20,0.18888481963010437
00:20,0.2635048525911005
00:20,0.3357443691631569
00:20,0.3715436733199048
00:20,0.3520417505951291
00:20,0.27623145943966304
00:20,0.1577549899285845
00:20,0.028383080021973997
00:20,-0.0785570408350119
00:20,-0.14566929133858267
00:20,-0.1646218641274492
00:20,-0.13614722578282365
00:20,-0.08093755722395166
00:20,-0.029664896539095403
00:20,0.0020142830983336385
00:20,0.01785387291704816
00:20,0.029207104925837758
00:20,0.04431422816334005
00:20,0.06079472624061527
00:20,0.06995055850576817
00:20,0.06921809192455594
00:20,0.0639992675334188
00:20,0.05832265152902399
00:20,0.0517304522981139
00:20,0.045504486357809924
00:20,0.04468046145394616
00:20,0.05310382713788683
00:20,0.06885185863394983
00:20,0.08542391503387659
00:20,0.09760117194652994
00:20,0.10465116279069768
00:20,0.10767258743819813
00:20,0.10831349569675884
00:20,0.10813037905145578
00:20,0.10776414576084967
00:20,0.10730635414759201
00:20,0.10684856253433438
00:20,0.10703167917963743
00:20,0.10886284563266801
00:20,0.11362387841054752
00:20,0.12140633583592748
00:20,0.13019593481047428
00:20,0.137245925654642
00:20,0.1416407251419154
00:20,0.14402124153085516
00:20,0.14566929133858267
00:20,0.14777513275956786
00:20,0.15198681560153818
00:20,0.15894524812305438
00:20,0.16800952206555575
00:20,0.17716535433070865
00:20,0.18467313678813405
00:20,0.19062442776048344
00:20,0.19675883537813588
00:20,0.20362570957700055
00:20,0.2101263504852591
00:20,0.21534517487639626
00:20,0.21873283281450284
00:20,0.22248672404321554
00:20,0.23200878959897456
00:20,0.2505951290972349
00:20,0.27247756821095037
00:20,0.2870353415125435
00:20,0.2895074162241348
00:20,0.2817249587987548
00:20,0.26826588536898005
00:20,0.25352499542208384
00:20,0.23796008057132392
00:20,0.22074711591283647
00:20,0.20463285112616736
00:20,0.1911737776963926
00:20,0.17963742904229996
00:20,0.17039003845449552
00:20,0.16352316425563085
00:20,0.15738875663797838
00:20,0.14997253250320455
00:20,0.1397180003662333
00:20,0.12653360190441312
00:20,0.11124336202160777
00:20,0.09668558872001465
00:20,0.08661417322834646
00:20,0.08203625709577
00:20,0.07892327412561802
00:20,0.07169016663614723
00:20,0.058597326496978575
00:20,0.04422266984068852
00:20,0.03479216260758103
00:20,0.032320087895989745
00:20,0.034334370994323384
00:20,0.03744735396447537
00:20,0.03946163706280901
00:20,0.03964475370811207
00:20,0.038820728804248306
00:20,0.03827137886833913
00:20,0.03827137886833913
00:20,0.037996703900384544
00:20,0.03662332906061161
00:20,0.03488372093023256
00:20,0.03286943783189892
00:20,0.030305804797656107
00:20,0.026643471891594946
00:20,0.022798022340230727
00:20,0.01968503937007874
00:20,0.017029848013184398
00:20,0.014283098333638528
00:20,0.012451931880607947
00:20,0.011994140267350302
00:20,0.011811023622047244
00:20,0.01025453213697125
00:20,0.008148690715986083
00:20,0.007233107489470793
00:20,0.006958432521516206
00:20,0.0060428492950009155
00:20,0.003662332906061161
00:20,0.0008240249038637612
00:20,-0.0009155832265152902
00:20,-0.0015564914850759934
00:20,-0.0016480498077275224
00:20,-0.0017396081303790514
00:20,-0.0015564914850759934
00:20,0.0
00:20,0.0027467496795458707
00:20,0.004303241164621864
00:20,0.0021058414209851675
00:20,-0.0030214246475004577
00:20,-0.009247390587804431
00:20,-0.015473356528108405
00:20,-0.02252334737227614
00:20,-0.03341878776780809
00:20,-0.04761032777879509
00:20,-0.06006225965940304
00:20,-0.06784471708478301
00:20,-0.07269730818531404
00:20,-0.0750778245742538
00:20,-0.07214795824940487
00:20,-0.06290056766160045
00:20,-0.050997985716901666
00:20,-0.04220838674235488
00:20,-0.03845449551364219
00:20,-0.03726423731917231
00:20,-0.03735579564182384
00:20,-0.04229994506500641
00:20,-0.056766160043947994
00:20,-0.07709210767258744
00:20,-0.0936641640725142
00:20,-0.1015381798205457
00:20,-0.10401025453213697
00:20,-0.10529207104925838
00:20,-0.10593297930781909
00:20,-0.1047427211133492
00:20,-0.1025453213697125
00:20,-0.10144662149789416
00:20,-0.1015381798205457
00:20,-0.10108038820728804
00:20,-0.09924922175425746
00:20,-0.09696026368796924
00:20,-0.09567844717084784
00:20,-0.09503753891228713
00:20,-0.09375572239516572
00:20,-0.09164988097418056
00:20,-0.08963559787584692
00:20,-0.08963559787584692
00:20,-0.09348104742721114
00:20,-0.1006225965940304
00:20,-0.10758102911554661
00:20,-0.11270829518403223
00:20,-0.11746932796191174
00:20,-0.12158945248123054
00:20,-0.12378685222486724
00:20,-0.12516022706464017
00:20,-0.12699139351767075
00:20,-0.12937190990661052
00:20,-0.13147775132759568
00:20,-0.13147775132759568
00:20,-0.12781541842153452
00:20,-0.11847646951107856
00:20,-0.10135506317524264
00:20,-0.08029664896539096
00:20,-0.06418238417872185
00:20,-0.05511811023622047
00:20,-0.04761032777879509
00:20,-0.040835011902581944
00:20,-0.0375389122871269
00:20,-0.03589086247939938
00:20,-0.033327229445156564
00:20,-0.03012268815235305
00:20,-0.027559055118110236
00:20,-0.02700970518220106
00:20,-0.028749313312580113
00:20,-0.030672038088262223
00:20,-0.03103827137886834
00:20,-0.030580479765610694
00:20,-0.031221388024171397
00:20,-0.035982420802050906
00:20,-0.04559604468046145
00:20,-0.056674601721296465
00:20,-0.06427394250137337
00:20,-0.06702069218091924
00:20,-0.06555575901849478
00:20,-0.06198498443508515
00:20,-0.06418238417872185
00:20,-0.07718366599523897
00:20,-0.09293169749130196
00:20,-0.09293169749130196
00:20,-0.05319538546053836
00:20,0.032411646218641274
00:20,0.13788683391320272
00:20,0.23081853140450467
00:20,0.28886650796557406
00:20,0.2971983153268632
00:20,0.2516938289690533
00:20,0.15894524812305438
00:20,0.03277787950924739
00:20,-0.10867972898736496
00:20,-0.236586705731551
00:20,-0.310840505401941
00:20,-0.3111151803698956
00:20,-0.2570957700054935
00:20,-0.18192638710858816
00:20,-0.11179271195751694
00:20,-0.06848562534334371
00:20,-0.05630836843069035
00:20,-0.05896355978758469
00:20,-0.06198498443508515
00:20,-0.062168101080388206
00:20,-0.058505768174327046
00:20,-0.049990844167734846
00:20,-0.03909540377220289
00:20,-0.03076359641091375
00:20,-0.027467496795458707
00:20,-0.027650613440761765
00:20,-0.028474638344625526
00:20,-0.028657754989928584
00:20,-0.027833730086064823
00:20,-0.026002563633034242
00:20,-0.022798022340230727
00:20,-0.018494781175608863
00:20,-0.015748031496062992
00:20,-0.01776231459439663
00:20,-0.023988280534700604
00:20,-0.03305255447720198
00:20,-0.04403955319538546
00:20,-0.05466031862296283
00:20,-0.06390770921076726
00:20,-0.07205639992675335
00:20,-0.07800769089910273
00:20,-0.08084599890130013
00:20,-0.08148690715986083
00:20,-0.08057132393334554
00:20,-0.07736678264054203
00:20,-0.0706830250869804
00:20,-0.06061160959531221
00:20,-0.048342794360007324
00:20,-0.03396813770371727
00:20,-0.016388939754623695
00:20,0.0015564914850759934
00:20,0.014649331624244644
00:20,0.02243178904962461
00:20,0.0290239882805347
00:20,0.03680644570591467
00:20,0.046236952939022156
00:20,0.056583043398644936
00:20,0.06601355063175243
00:20,0.0728804248306171
00:20,0.07754989928584509
00:20,0.08304339864493683
00:20,0.09201611426478667
00:20,0.10455960446804614
00:20,0.11994140267350302
00:20,0.137245925654642
00:20,0.15308551547335653
00:20,0.16315693096502473
00:20,0.16727705548434352
00:20,0.1691082219373741
00:20,0.16883354696941952
00:20,0.1618751144479033
00:20,0.14530305804797655
00:20,0.12424464383812489
00:20,0.10538362937190991
00:20,0.09082585607031679
00:20,0.07956418238417873
00:20,0.07169016663614723
00:20,0.0672038088262223
00:20,0.06363303424281268
00:20,0.05823109320637246
00:20,0.0517304522981139
00:20,0.04706097784288592
00:20,0.04504669474455228
00:20,0.04376487822743087
00:20,0.040743453579930415
00:20,0.03442592931697491
00:20,0.02444607214795825
00:20,0.012543490203259476
00:20,0.003204541292803516
00:20,0.00018311664530305805
00:20,0.0030214246475004577
00:20,0.007324665812122322
00:20,0.007233107489470793
00:20,0.0009155832265152902
00:20,-0.006866874198864677
00:20,-0.010529207104925838
00:20,-0.008606482329243728
00:20,-0.003570774583409632
00:20,0.0008240249038637612
00:20,0.0029298663248489287
00:20,0.003570774583409632
00:20,0.004120124519318806
00:20,0.0030214246475004577
00:20,-0.003570774583409632
00:20,-0.018128547885002746
00:20,-0.03460904596227797
00:20,-0.0432155282915217
00:20,-0.04120124519318806
00:20,-0.03396813770371727
00:20,-0.02728438015015565
00:20,-0.023713605566746017
00:20,-0.023805163889397546
00:20,-0.02728438015015565
00:20,-0.03268632118659586
00:20,-0.03827137886833913
00:20,-0.04294085332356711
00:20,-0.04660318622962827
00:20,-0.04989928584508332
00:20,-0.052829152169932246
00:20,-0.05420252700970518
00:20,-0.05182201062076543
00:20,-0.04376487822743087
00:20,-0.0325032045412928
00:20,-0.025911005310382713
00:20,-0.030214246475004577
00:20,-0.043581761582127815
00:20,-0.05813953488372093
00:20,-0.06702069218091924
00:20,-0.06976744186046512
00:20,-0.07123237502288958
00:20,-0.07571873283281451
00:20,-0.08176158212781542
00:20,-0.08194469877311848
00:20,-0.07196484160410181
00:20,-0.05878044314228163
00:20,-0.050997985716901666
00:20,-0.047244094488188976
00:20,-0.04239150338765794
00:20,-0.03570774583409632
00:20,-0.02801684673136788
00:20,-0.02069218091924556
00:20,-0.015656473173411463
00:20,-0.012543490203259476
00:20,-0.010437648782274309
00:20,-0.010071415491668192
00:20,-0.01217725691265336
00:20,-0.015473356528108405
00:20,-0.01794543123969969
00:20,-0.01785387291704816
00:20,-0.013916865043032411
00:20,-0.0058597326496978575
00:20,0.004577916132576451
00:20,0.01583958981871452
00:20,0.026643471891594946
00:20,0.034334370994323384
00:20,0.035982420802050906
00:20,0.033144112799853506
00:20,0.029390221571140816
00:20,0.02627723860098883
00:20,0.023988280534700604
00:20,0.022706464017579198
00:20,0.022157114081670023
00:20,0.022248672404321553
00:20,0.024903863761215894
00:20,0.03259476286394433
00:20,0.044588903131294634
00:20,0.05603369346273576
00:20,0.06079472624061527
00:20,0.057498626625160226
00:20,0.05072331074894708
00:20,0.0460538362937191
00:20,0.047244094488188976
00:20,0.05704083501190258
00:20,0.07397912470243545
00:20,0.09055118110236221
00:20,0.09979857169016663
00:20,0.10199597143380333
00:20,0.10117194652993958
00:20,0.09952389672221205
00:20,0.09696026368796924
00:20,0.09348104742721114
00:20,0.09055118110236221
00:20,0.0892693645852408
00:20,0.09073429774766527
00:20,0.0955868888481963
00:20,0.10172129646584875
00:20,0.10547518769456143
00:20,0.1050173960813038
00:20,0.10245376304706098
00:20,0.09750961362387842
00:20,0.0845083318073613
00:20,0.059512909723493865
00:20,0.030214246475004577
00:20,0.010162973814319722
00:20,0.003296099615455045
00:20,0.004211682841970335
00:20,0.007416224134773851
00:20,0.010712323750228896
00:20,0.011444790331441128
00:20,0.006500640908258561
00:20,-0.003479216260758103
00:20,-0.012451931880607947
00:20,-0.008148690715986083
00:20,0.022798022340230727
00:20,0.083592748580846
00:20,0.16041018128547885
00:20,0.23145943966306537
00:20,0.27934444240981504
00:20,0.2974729902948178
00:20,0.2867606665445889
00:20,0.24052371360556674
00:20,0.14878227430873467
00:20,0.026735030214246475
00:20,-0.09631935542940853
00:20,-0.19794909357260576
00:20,-0.24995422083867425
00:20,-0.23649514740889946
00:20,-0.18110236220472442
00:20,-0.12268815235304889
00:20,-0.08377586522614906
00:20,-0.06674601721296466
00:20,-0.0615271928218275
00:20,-0.05612525178538729
00:20,-0.04761032777879509
00:20,-0.040651895257278886
00:20,-0.03726423731917231
00:20,-0.03488372093023256
00:20,-0.03177073796008057
00:20,-0.02893242995788317
00:20,-0.02719282182750412
00:20,-0.02627723860098883
00:20,-0.025544772019776597
00:20,-0.02444607214795825
00:20,-0.022981138985533785
00:20,-0.02343893059879143
00:20,-0.02911554660318623
00:20,-0.039827870353415125
00:20,-0.052005127266068485
00:20,-0.06198498443508515
00:20,-0.0674784837941769
00:20,-0.06830250869804065
00:20,-0.0659219923091009
00:20,-0.05923823475553928
00:20,-0.046328511261673685
00:20,-0.03012268815235305
00:20,-0.014832448269547702
00:20,-0.0018311664530305805
00:20,0.008148690715986083
00:20,0.013550631752426295
00:20,0.01501556491485076
00:20,0.015656473173411463
00:20,0.018036989562351217
00:20,0.02234023072697308
00:20,0.030214246475004577
00:20,0.04522981138985534
00:20,0.06637978392235855
00:20,0.08624793993774034
00:20,0.09888298846365134
00:20,0.10437648782274309
00:20,0.10657388756637978
00:20,0.10950375389122871
00:20,0.1141732283464567
00:20,0.11893426112433621
00:20,0.1220472440944882
00:20,0.12497711041933712
00:20,0.13294268449002014
00:20,0.14978941585790148
00:20,0.17148873832631387
00:20,0.18806079472624063
00:20,0.19511078557040834
00:20,0.19547701886101446
00:20,0.1921809192455594
00:20,0.18430690349752793
00:20,0.17057315509979856
00:20,0.15436733199047795
00:20,0.1420069584325215
00:20,0.13413294268449003
00:20,0.12516022706464017
00:20,0.10895440395531954
00:20,0.08304339864493683
00:20,0.05035707745834096
00:20,0.018311664530305805
00:20,-0.0058597326496978575
00:20,-0.02160776414576085
00:20,-0.03177073796008057
00:20,-0.0375389122871269
00:20,-0.039827870353415125
00:20,-0.04046877861197583
00:20,-0.04184215345174876
00:20,-0.04587071964841604
00:20,-0.051913568943416956
00:20,-0.0580479765610694
00:20,-0.0639992675334188
00:20,-0.06958432521516206
00:20,-0.07352133308917781
00:20,-0.07709210767258744
00:20,-0.08331807361289141
00:20,-0.09164988097418056
00:20,-0.0968687053653177
00:20,-0.0958615638161509
00:20,-0.09201611426478667
00:20,-0.0936641640725142
00:20,-0.10263687969236404
00:20,-0.10950375389122871
00:20,-0.1062992125984252
00:20,-0.09869987181834829
00:20,-0.09567844717084784
00:20,-0.097784288591833
00:20,-0.10172129646584875
00:20,-0.1069401208569859
00:20,-0.11316608679728987
00:20,-0.11820179454312398
00:20,-0.12085698590001831
00:20,-0.1217725691265336
00:20,-0.12250503570774583
00:20,-0.12369529390221572
00:20,-0.1258011353232009
00:20,-0.12937190990661052
00:20,-0.13330891778062626
00:20,-0.13651345907342977
00:20,-0.13825306720380884
00:20,-0.1381615088811573
00:20,-0.13578099249221753
00:20,-0.13111151803698956
00:20,-0.12552646035524628
00:20,-0.12131477751327596
00:20,-0.11939205273759385
00:20,-0.11902581944698773
00:20,-0.12012451931880608
00:20,-0.12287126899835195
00:20,-0.1264420435817616
00:20,-0.12891411829335286
00:20,-0.12992125984251968
00:20,-0.13010437648782275
00:20,-0.1300128181651712
00:20,-0.12918879326130744
00:20,-0.12754074345357994
00:20,-0.1264420435817616
00:20,-0.12552646035524628
00:20,-0.12277971067570043
00:20,-0.11893426112433621
00:20,-0.11646218641274492
00:20,-0.11591283647683574
00:20,-0.1154550448635781
00:20,-0.11160959531221389
00:20,-0.10419337117744003
00:20,-0.09705182201062076
00:20,-0.09329793078190808
00:20,-0.09238234755539279
00:20,-0.09100897271561985
00:20,-0.08459989013001282
00:20,-0.0696758835378136
00:20,-0.04861746932796191
00:20,-0.03003112982970152
00:20,-0.020875297564548617
00:20,-0.018036989562351217
00:20,-0.014740889946896173
00:20,-0.011994140267350302
00:20,-0.01602270646401758
00:20,-0.029664896539095403
00:20,-0.048251236037355795
00:20,-0.06189342611243362
00:20,-0.06418238417872185
00:20,-0.05896355978758469
00:20,-0.05218824391137154
00:20,-0.04468046145394616
00:20,-0.03717267899652078
00:20,-0.03158762131477751
00:20,-0.02700970518220106
00:20,-0.02060062259659403
00:20,-0.010895440395531954
00:20,0.0019227247756821095
00:20,0.01684673136788134
00:20,0.03094671305621681
00:20,0.039736312030763596
00:20,0.04028566196667277
00:20,0.03378502105841421
00:20,0.022706464017579198
00:20,0.01126167368613807
00:20,0.0029298663248489287
00:20,-0.0021058414209851675
00:20,-0.004211682841970335
00:20,-0.0022889580662882256
00:20,0.004761032777879509
00:20,0.018952572788866508
00:20,0.03955319538546054
00:20,0.06015381798205457
00:20,0.07306354147592016
00:20,0.07837392418970884
00:20,0.08203625709577
00:20,0.0877128731001648
00:20,0.0936641640725142
00:20,0.09595312213880242
00:20,0.08853689800402857
00:20,0.06546420069584326
00:20,0.0290239882805347
00:20,-0.006409082585607032
00:20,-0.026551913568943417
00:20,-0.029573338216443874
00:20,-0.022981138985533785
00:20,-0.01400842336568394
00:20,-0.005035707745834096
00:20,0.004120124519318806
00:20,0.011078557040835012
00:20,0.013825306720380882
00:20,0.020051272660684856
00:20,0.04431422816334005
00:20,0.0943050723310749
00:20,0.1624244643838125
00:20,0.23164255630836844
00:20,0.2858450833180736
00:20,0.3079106390770921
00:20,0.28016846731367884
00:20,0.19739974363669657
00:20,0.07654275773667826
00:20,-0.04797656106940121
00:20,-0.1435634499175975
00:20,-0.19410364402124153
00:20,-0.19456143563449918
00:20,-0.1567478483794177
00:20,-0.11453946163706281
00:20,-0.08890313129463469
00:20,-0.07077458340963194
00:20,-0.049990844167734846
00:20,-0.02984801318439846
00:20,-0.016205823109320637
00:20,-0.009705182201062076
00:20,-0.0059512909723493865
00:20,-0.0007324665812122322
00:20,0.006683757553561619
00:20,0.01583958981871452
00:20,0.02636879692364036
00:20,0.03726423731917231
00:20,0.0460538362937191
00:20,0.052005127266068485
00:20,0.05612525178538729
00:20,0.05548434352682659
00:20,0.04880058597326497
00:20,0.04394799487273393
00:20,0.048159677714704266
00:20,0.05795641823841787
00:20,0.0665629005676616
00:20,0.07059146676432888
00:20,0.06995055850576817
00:20,0.06738692547152536
00:20,0.0665629005676616
00:20,0.06811939205273759
00:20,0.06949276689251054
00:20,0.07059146676432888
00:20,0.07361289141182933
00:20,0.07709210767258744
00:20,0.07846548251236038
00:20,0.07846548251236038
00:20,0.08057132393334554
00:20,0.08716352316425563
00:20,0.09631935542940853
00:20,0.10364402124153085
00:20,0.10657388756637978
00:20,0.10666544588903132
00:20,0.10657388756637978
00:20,0.10922907892327413
00:20,0.11710309467130563
00:20,0.13074528474638344
00:20,0.1473173411463102
00:20,0.1618751144479033
00:20,0.17258743819813221
00:20,0.1823841787218458
00:20,0.19575169382896906
00:20,0.2122321919062443
00:20,0.2258743819813221
00:20,0.23109320637245925
00:20,0.22862113166086798
00:20,0.22340230726973082
00:20,0.2201977659769273
00:20,0.21873283281450284
00:20,0.21442959164988099
00:20,0.2031679179637429
00:20,0.1867789782091192
00:20,0.1706647134224501
00:20,0.15720563999267534
00:20,0.14521149972532504
00:20,0.13367515107123237
00:20,0.1220472440944882
00:20,0.11005310382713789
00:20,0.09924922175425746
00:20,0.09238234755539279
00:20,0.08881157297198315
00:20,0.08588170664713422
00:20,0.08148690715986083
00:20,0.07370444973448087
00:20,0.06198498443508515
00:20,0.04944149423182567
00:20,0.03927852041750595
00:20,0.030488921442959165
00:20,0.022065555759018494
00:20,0.015381798205456876
00:20,0.01025453213697125
00:20,0.003570774583409632
00:20,-0.006317524262955503
00:20,-0.018036989562351217
00:20,-0.02801684673136788
00:20,-0.03460904596227797
00:20,-0.037905145577733015
00:20,-0.03854605383629372
00:20,-0.0353415125434902
00:20,-0.026826588536898004
00:20,-0.016297381431972166
00:20,-0.011719465299395715
00:20,-0.018311664530305805
00:20,-0.031404504669474455
00:20,-0.04303241164621864
00:20,-0.050997985716901666
00:20,-0.05887200146493316
00:20,-0.06482329243728255
00:20,-0.061344076176524445
00:20,-0.047427211133492034
00:20,-0.03158762131477751
00:20,-0.022065555759018494
00:20,-0.019410364402124153
00:20,-0.020234389305987914
00:20,-0.02169932246841238
00:20,-0.02252334737227614
00:20,-0.021973997436366965
00:20,-0.01968503937007874
00:20,-0.018403222852957334
00:20,-0.024812305438564365
00:20,-0.0438564365500824
00:20,-0.06775315876213148
00:20,-0.08002197399743637
00:20,-0.07342977476652628
00:20,-0.056583043398644936
00:20,-0.041659036806445705
00:20,-0.031404504669474455
00:20,-0.02252334737227614
00:20,-0.016388939754623695
00:20,-0.01593114814136605
00:20,-0.018403222852957334
00:20,-0.020142830983336385
00:20,-0.02060062259659403
00:20,-0.020417505951290972
00:20,-0.020234389305987914
00:20,-0.019868156015381798
00:20,-0.020234389305987914
00:20,-0.025544772019776597
00:20,-0.03854605383629372
00:20,-0.05429408533235671
00:20,-0.06674601721296466
00:20,-0.07352133308917781
00:20,-0.07086614173228346
00:20,-0.059604468046145394
00:20,-0.04880058597326497
00:20,-0.044588903131294634
00:20,-0.044588903131294634
00:20,-0.04504669474455228
00:20,-0.044405786485991576
00:20,-0.04403955319538546
00:20,-0.045321369712506866
00:20,-0.045321369712506866
00:20,-0.04046877861197583
00:20,-0.03286943783189892
00:20,-0.02627723860098883
00:20,-0.02169932246841238
00:20,-0.019044131111518037
00:20,-0.01776231459439663
00:20,-0.017121406335835927
00:20,-0.017121406335835927
00:20,-0.018036989562351217
00:20,-0.020417505951290972
00:20,-0.024079838857352133
00:20,-0.027375938472807178
00:20,-0.028291521699322468
00:20,-0.026826588536898004
00:20,-0.024995422083867423
00:20,-0.024903863761215894
00:20,-0.024812305438564365
00:20,-0.01886101446621498
00:20,-0.003845449551364219
00:20,0.017487639626442043
00:20,0.03827137886833913
00:20,0.050265519135689433
00:20,0.048342794360007324
00:20,0.030397363120307636
00:20,0.0014649331624244644
00:20,-0.02517853872917048
00:20,-0.03927852041750595
00:20,-0.04147592016114265
00:20,-0.03909540377220289
00:20,-0.03808826222303607
00:20,-0.03946163706280901
00:20,-0.04248306171030947
00:20,-0.0466947445522798
00:20,-0.054843435268265885
00:20,-0.07269730818531404
00:20,-0.09457974729902949
00:20,-0.09577000549349936
00:20,-0.060428492950009155
00:20,0.0005493499359091741
00:20,0.07242263321735946
00:20,0.1409998168833547
00:20,0.19254715253616553
00:20,0.2255997070133675
00:20,0.23466398095586888
00:20,0.19959714338033327
00:20,0.11325764511994141
00:20,-0.01117011536348654
00:20,-0.1495147408899469
00:20,-0.2703717267899652
00:20,-0.3456326680095221
00:20,-0.3618384911188427
00:20,-0.32356711225050355
00:20,-0.25654642006958434
00:20,-0.19465299395715072
00:20,-0.1532686321186596
00:20,-0.12937190990661052
00:20,-0.11582127815418422
00:20,-0.10593297930781909
00:20,-0.09439663065372643
00:20,-0.08020509064273942
00:20,-0.06665445889031313
00:20,-0.05731550997985717
00:20,-0.052920710492583775
00:20,-0.05136421900750778
00:20,-0.050265519135689433
00:20,-0.048342794360007324
00:20,-0.0466947445522798
00:20,-0.04587071964841604
00:20,-0.04577916132576451
00:20,-0.04779344442409815
00:20,-0.05227980223402307
00:20,-0.056766160043947994
00:20,-0.058597326496978575
00:20,-0.05731550997985717
00:20,-0.05502655191356894
00:20,-0.05328694378318989
00:20,-0.04980772752243179
00:20,-0.04284929500091558
00:20,-0.03460904596227797
00:20,-0.02911554660318623
00:20,-0.02700970518220106
00:20,-0.026918146859549533
00:20,-0.02719282182750412
00:20,-0.027467496795458707
00:20,-0.027467496795458707
00:20,-0.026643471891594946
00:20,-0.023896722212049075
00:20,-0.01858633949826039
00:20,-0.010162973814319722
00:20,0.0022889580662882256
00:20,0.019318806079472624
00:20,0.03836293719099066
00:20,0.05530122688152353
00:20,0.06711225050357078
00:20,0.07342977476652628
00:20,0.07471159128364768
00:20,0.07269730818531404
00:20,0.07104925837758652
00:20,0.07407068302508699
00:20,0.08377586522614906
00:20,0.10071415491668192
00:20,0.12076542757736679
00:20,0.13541475920161142
00:20,0.1413660501739608
00:20,0.14228163340047612
00:20,0.14246475004577916
00:20,0.14457059146676432
00:20,0.14832448269547702
00:20,0.1507965574070683
00:20,0.14566929133858267
00:20,0.1258011353232009
00:20,0.09403039736312031
00:20,0.0637245925654642
00:20,0.04522981138985534
00:20,0.036989562351217725
00:20,0.03076359641091375
00:20,0.02069218091924556
00:20,0.008331807361289141
00:20,-0.0017396081303790514
00:20,-0.00750778245742538
00:20,-0.008514924006592199
00:20,-0.005768174327046328
00:20,-0.00375389122871269
00:20,-0.006500640908258561
00:20,-0.012451931880607947
00:20,-0.01776231459439663
00:20,-0.02252334737227614
00:20,-0.029756454861746932
00:20,-0.03946163706280901
00:20,-0.04761032777879509
00:20,-0.0517304522981139
00:20,-0.05154733565281084
00:20,-0.047427211133492034
00:20,-0.04248306171030947
00:20,-0.04056033693462736
00:20,-0.04248306171030947
00:20,-0.045321369712506866
00:20,-0.04587071964841604
00:20,-0.04568760300311298
00:20,-0.04852591100531038
00:20,-0.05356161875114448
00:20,-0.057590184947811755
00:20,-0.06006225965940304
00:20,-0.06106940120856986
00:20,-0.058597326496978575
00:20,-0.05081486907159861
00:20,-0.039827870353415125
00:20,-0.029756454861746932
00:20,-0.02169932246841238
00:20,-0.014740889946896173
00:20,-0.010162973814319722
00:20,-0.008789598974546786
00:20,-0.00943050723310749
00:20,-0.010620765427577367
00:20,-0.011536348654092657
00:20,-0.010986998718183483
00:20,-0.007324665812122322
00:20,-0.0006409082585607032
00:20,0.006409082585607032
00:20,0.011444790331441128
00:20,0.01409998168833547
00:20,0.014557773301593115
00:20,0.010071415491668192
00:20,-0.0020142830983336385
00:20,-0.018220106207654276
00:20,-0.03003112982970152
00:20,-0.033235671122505035
00:20,-0.02993957150704999
00:20,-0.023896722212049075
00:20,-0.018311664530305805
00:20,-0.015290239882805347
00:20,-0.014649331624244644
00:20,-0.015381798205456876
00:20,-0.017121406335835927
00:20,-0.019501922724775682
00:20,-0.021241530855154733
00:20,-0.02169932246841238
00:20,-0.02169932246841238
00:20,-0.022157114081670023
00:20,-0.023255813953488372
00:20,-0.023255813953488372
00:20,-0.021333089177806262
00:20,-0.020417505951290972
00:20,-0.02444607214795825
00:20,-0.03195385460538363
00:20,-0.038912287126899835
00:20,-0.04413111151803699
00:20,-0.04761032777879509
00:20,-0.04989928584508332
00:20,-0.05044863578099249
00:20,-0.044588903131294634
00:20,-0.02801684673136788
00:20,-0.0062259659403039735
00:20,0.008057132393334554
00:20,0.010529207104925838
00:20,0.00750778245742538
00:20,0.005127266068485625
00:20,0.004394799487273393
00:20,0.004120124519318806
00:20,0.004211682841970335
00:20,0.006409082585607032
00:20,0.012543490203259476
00:20,0.021882439113715436
00:20,0.03085515473356528
00:20,0.03653177073796008
00:20,0.03772202893242996
00:20,0.035066837575535616
00:20,0.03158762131477751
00:20,0.03094671305621681
00:20,0.03479216260758103
00:20,0.04184215345174876
00:20,0.04962461087712873
00:20,0.054843435268265885
00:20,0.05530122688152353
00:20,0.050173960813037904
00:20,0.039003845449551364
00:20,0.02435451382530672
00:20,0.011902581944698773
00:20,0.004211682841970335
00:20,-0.00027467496795458707
00:20,-0.003204541292803516
00:20,-0.00466947445522798
00:20,-0.005218824391137154
00:20,-0.007416224134773851
00:20,-0.01501556491485076
00:20,-0.029573338216443874
00:20,-0.043581761582127815
00:20,-0.04092657022523347
00:20,-0.011353232008789599
00:20,0.04284929500091558
00:20,0.11527192821827505
00:20,0.19630104376487822
00:20,0.2681743270463285
00:20,0.30800219739974366
00:20,0.3015015564914851
00:20,0.24501007141549166
00:20,0.14017579197949093
00:20,0.005493499359091741
00:20,-0.124610877128731
00:20,-0.22596594030397363
00:20,-0.2819996337667094
00:20,-0.28026002563633035
00:20,-0.23768540560336934
00:20,-0.18622962827321005
00:20,-0.14063358359274858
00:20,-0.10492583775865226
00:20,-0.0829518403222853
00:20,-0.07040835011902583
00:20,-0.06097784288591833
00:20,-0.053836293719099065
00:20,-0.050265519135689433
00:20,-0.04944149423182567
00:20,-0.04770188610144662
00:20,-0.04211682841970335
00:20,-0.03158762131477751
00:20,-0.019501922724775682
00:20,-0.010162973814319722
00:20,-0.004577916132576451
00:20,-0.0010071415491668192
00:20,0.0010071415491668192
00:20,0.0014649331624244644
00:20,0.0010071415491668192
00:20,0.0009155832265152902
00:20,0.0028383080021973997
00:20,0.007599340780076909
00:20,0.014557773301593115
00:20,0.02252334737227614
00:20,0.028291521699322468
00:20,0.027375938472807178
00:20,0.020234389305987914
00:20,0.01309284013916865
00:20,0.008240249038637612
00:20,0.003570774583409632
00:20,-0.0005493499359091741
00:20,0.0
00:20,0.00750778245742538
00:20,0.020417505951290972
00:20,0.037996703900384544
00:20,0.060336934627357626
00:20,0.08148690715986083
00:20,0.09320637245925655
00:20,0.09604468046145395
00:20,0.09577000549349936
00:20,0.09393883904046878
00:20,0.09000183116645304
00:20,0.08661417322834646
00:20,0.08679728987364951
00:20,0.09110053103827138
00:20,0.09952389672221205
00:20,0.11252517853872918
00:20,0.12818165171214063
00:20,0.1425563083684307
00:20,0.15436733199047795
00:20,0.1637062809009339
00:20,0.16755173045229813
00:20,0.16288225599707012
00:20,0.15198681560153818
00:20,0.13990111701153635
00:20,0.13083684306903498
00:20,0.12671671854971617
00:20,0.12662516022706463
00:20,0.12763230177623147
00:20,0.1258926936458524
00:20,0.11673686138069951
00:20,0.09769273026918147
00:20,0.0728804248306171
00:20,0.049990844167734846
00:20,0.03351034609045962
00:20,0.021333089177806262
00:20,0.009064273942501373
00:20,-0.003570774583409632
00:20,-0.014832448269547702
00:20,-0.024079838857352133
00:20,-0.029756454861746932
00:20,-0.029481779893792345
00:20,-0.02545321369712507
00:20,-0.022798022340230727
00:20,-0.02536165537447354
00:20,-0.03396813770371727
00:20,-0.044588903131294634
00:20,-0.05145577733015931
00:20,-0.05356161875114448
00:20,-0.05328694378318989
00:20,-0.05255447720197766
00:20,-0.051181102362204724
00:20,-0.048342794360007324
00:20,-0.04587071964841604
00:20,-0.04706097784288592
00:20,-0.05347006042849295
00:20,-0.06253433437099433
00:20,-0.06885185863394983
00:20,-0.06866874198864677
00:20,-0.0639992675334188
00:20,-0.05694927668925105
00:20,-0.04715253616553745
00:20,-0.038912287126899835
00:20,-0.03964475370811207
00:20,-0.0517304522981139
00:20,-0.069401208569859
00:20,-0.08340963193554295
00:20,-0.08981871452114998
00:20,-0.09183299761948362
00:20,-0.09293169749130196
00:20,-0.09219923091008973
00:20,-0.08478300677531588
00:20,-0.06692913385826772
00:20,-0.04229994506500641
00:20,-0.022889580662882256
00:20,-0.018220106207654276
00:20,-0.025086980406518952
00:20,-0.03268632118659586
00:20,-0.035158395898187145
00:20,-0.0347006042849295
00:20,-0.03671488738326314
00:20,-0.045321369712506866
00:20,-0.060428492950009155
00:20,-0.07809924922175426
00:20,-0.09137520600622596
00:20,-0.09183299761948362
00:20,-0.08066288225599708
00:20,-0.06903497527925288
00:20,-0.06381615088811574
00:20,-0.06344991759750962
00:20,-0.06454861746932797
00:20,-0.06628822559970701
00:20,-0.06903497527925288
00:20,-0.07242263321735946
00:20,-0.07480314960629922
00:20,-0.07544405786485991
00:20,-0.07489470792895074
00:20,-0.0744369163156931
00:20,-0.07562717451016297
00:20,-0.07993041567478484
00:20,-0.08624793993774034
00:20,-0.09128364768357444
00:20,-0.09229078923274125
00:20,-0.08743819813221022
00:20,-0.07718366599523897
00:20,-0.06628822559970701
00:20,-0.0602453763047061
00:20,-0.059604468046145394
00:20,-0.061435634499175974
00:20,-0.0630836843069035
00:20,-0.06418238417872185
00:20,-0.06702069218091924
00:20,-0.07260574986266252
00:20,-0.07700054934993592
00:20,-0.07581029115546603
00:20,-0.07040835011902583
00:20,-0.06418238417872185
00:20,-0.058688884819630104
00:20,-0.05502655191356894
00:20,-0.05347006042849295
00:20,-0.05347006042849295
00:20,-0.05502655191356894
00:20,-0.05713239333455411
00:20,-0.058597326496978575
00:20,-0.05969602636879692
00:20,-0.05905511811023622
00:20,-0.05273759384728072
00:20,-0.037081120673869254
00:20,-0.016205823109320637
00:20,-0.0004577916132576451
00:20,0.005676616004394799
00:20,0.007233107489470793
00:20,0.009979857169016663
00:20,0.014832448269547702
00:20,0.017579197949093572
00:20,0.013367515107123237
00:20,0.0017396081303790514
00:20,-0.011902581944698773
00:20,-0.020875297564548617
00:20,-0.023713605566746017
00:20,-0.023713605566746017
00:20,-0.024079838857352133
00:20,-0.02627723860098883
00:20,-0.028749313312580113
00:20,-0.028474638344625526
00:20,-0.022889580662882256
00:20,-0.015656473173411463
00:20,-0.016663614722578282
00:20,-0.023072697308185314
00:20,-0.014466214978941586
00:20,0.02627723860098883
00:20,0.1028199963376671
00:20,0.19941402673503023
00:20,0.2797106757004212
00:20,0.3132210217908808
00:20,0.29445156564731734
00:20,0.22605749862662516
00:20,0.11344076176524447
00:20,-0.01675517304522981
00:20,-0.13587255081486907
00:20,-0.2309100897271562
00:20,-0.2827321003479216
00:20,-0.26963926020875295
00:20,-0.2031679179637429
00:20,-0.12479399377403406
00:20,-0.06619666727705549
00:20,-0.037813587255081486
00:20,-0.03662332906061161
00:20,-0.04522981138985534
00:20,-0.04587071964841604
00:20,-0.03579930415674785
00:20,-0.02234023072697308
00:20,-0.013001281816517121
00:20,-0.009979857169016663
00:20,-0.010437648782274309
00:20,-0.011719465299395715
00:20,-0.012451931880607947
00:20,-0.011353232008789599
00:20,-0.006775315876213148
00:20,-9.155832265152902e-05
00:20,0.004303241164621864
00:20,0.004394799487273393
00:20,0.0031129829701519868
00:20,0.003662332906061161
00:20,0.005127266068485625
00:20,0.0058597326496978575
00:20,0.006683757553561619
00:20,0.010803882072880425
00:20,0.02069218091924556
00:20,0.033144112799853506
00:20,0.04184215345174876
00:20,0.04513825306720381
00:20,0.04678630287493133
00:20,0.04980772752243179
00:20,0.05255447720197766
00:20,0.051181102362204724
00:20,0.045504486357809924
00:20,0.039827870353415125
00:20,0.03763047060977843
00:20,0.03863761215894525
00:20,0.04129280351583959
00:20,0.04522981138985534
00:20,0.05136421900750778
00:20,0.05969602636879692
00:20,0.06894341695660136
00:20,0.07947262406152719
00:20,0.09009338948910456
00:20,0.09732649697857536
00:20,0.10172129646584875
00:20,0.10968687053653177
00:20,0.12598425196850394
00:20,0.14429591649880974
00:20,0.15198681560153818
00:20,0.1473173411463102
00:20,0.13678813404138437
00:20,0.12415308551547335
00:20,0.11371543673319905
00:20,0.11014466214978942
00:20,0.1126167368613807
00:20,0.11701153634865409
00:20,0.1195751693828969
00:20,0.11774400292986632
00:20,0.10877128731001648
00:20,0.09091741439296833
00:20,0.06775315876213148
00:20,0.04797656106940121
00:20,0.037996703900384544
00:20,0.03561618751144479
00:20,0.032228529573338216
00:20,0.02160776414576085
00:20,0.006500640908258561
00:20,-0.004394799487273393
00:20,-0.008148690715986083
00:20,-0.009247390587804431
00:20,-0.012726606848562534
00:20,-0.018403222852957334
00:20,-0.02243178904962461
00:20,-0.02343893059879143
00:20,-0.02261490569492767
00:20,-0.021149972532503204
00:20,-0.01858633949826039
00:20,-0.015290239882805347
00:20,-0.012818165171214063
00:20,-0.011994140267350302
00:20,-0.011994140267350302
00:20,-0.012360373557956418
00:20,-0.013459073429774766
00:20,-0.015290239882805347
00:20,-0.016663614722578282
00:20,-0.014740889946896173
00:20,-0.006409082585607032
00:20,0.007049990844167735
00:20,0.019501922724775682
00:20,0.025819446987731184
00:20,0.026918146859549533
00:20,0.02636879692364036
00:20,0.023896722212049075
00:20,0.01794543123969969
00:20,0.01034609045962278
00:20,0.004852591100531038
00:20,0.0024720747115912836
00:20,0.0017396081303790514
00:20,0.0019227247756821095
00:20,0.003387657938106574
00:20,0.0060428492950009155
00:20,0.00943050723310749
00:20,0.013916865043032411
00:20,0.01876945614356345
00:20,0.020142830983336385
00:20,0.015107123237502289
00:20,0.005493499359091741
00:20,-0.0030214246475004577
00:20,-0.00750778245742538
00:20,-0.009064273942501373
00:20,-0.010071415491668192
00:20,-0.011536348654092657
00:20,-0.012818165171214063
00:20,-0.013642190075077824
00:20,-0.01409998168833547
00:20,-0.014557773301593115
00:20,-0.015107123237502289
00:20,-0.015656473173411463
00:20,-0.01602270646401758
00:20,-0.016114264786669108
00:20,-0.01602270646401758
00:20,-0.015564914850759934
00:20,-0.014283098333638528
00:20,-0.012451931880607947
00:20,-0.01117011536348654
00:20,-0.011811023622047244
00:20,-0.015564914850759934
00:20,-0.021241530855154733
00:20,-0.024995422083867423
00:20,-0.024629188793261307
00:20,-0.02234023072697308
00:20,-0.020875297564548617
00:20,-0.020142830983336385
00:20,-0.017579197949093572
00:20,-0.011536348654092657
00:20,-0.005035707745834096
00:20,-0.003937007874015748
00:20,-0.010620765427577367
00:20,-0.01977659769273027
00:20,-0.023988280534700604
00:20,-0.021973997436366965
00:20,-0.018311664530305805
00:20,-0.016480498077275224
00:20,-0.016297381431972166
00:20,-0.01675517304522981
00:20,-0.017304522981138985
00:20,-0.01785387291704816
00:20,-0.018311664530305805
00:20,-0.018494781175608863
00:20,-0.018036989562351217
00:20,-0.016480498077275224
00:20,-0.01409998168833547
00:20,-0.011627906976744186
00:20,-0.009613623878410547
00:20,-0.008331807361289141
00:20,-0.007416224134773851
00:20,-0.007416224134773851
00:20,-0.007965574070683025
00:20,-0.0059512909723493865
00:20,0.0004577916132576451
00:20,0.007782457425379967
00:20,0.012360373557956418
00:20,0.014740889946896173
00:20,0.016297381431972166
00:20,0.017304522981138985
00:20,0.017579197949093572
00:20,0.017396081303790514
00:20,0.01785387291704816
00:20,0.019227247756821095
00:20,0.02069218091924556
00:20,0.020966855887200146
00:20,0.019227247756821095
00:20,0.015290239882805347
00:20,0.008606482329243728
00:20,-0.0013733748397729353
00:20,-0.013275956784471708
00:20,-0.02261490569492767
00:20,-0.028291521699322468
00:20,-0.0347006042849295
00:20,-0.04330708661417323
00:20,-0.046236952939022156
00:20,-0.036989562351217725
00:20,-0.015748031496062992
00:20,0.02169932246841238
00:20,0.08020509064273942
00:20,0.1549166819263871
00:20,0.23173411463101995
00:20,0.2861197582860282
00:20,0.29436000732466583
00:20,0.24501007141549166
00:20,0.1398095586888848
00:20,0.0021973997436366965
00:20,-0.12891411829335286
00:20,-0.2235854239150339
00:20,-0.26524446072147956
00:20,-0.25105292071049257
00:20,-0.19941402673503023
00:20,-0.14502838308002197
00:20,-0.11307452847463835
00:20,-0.1015381798205457
00:20,-0.09302325581395349
00:20,-0.07864859915766344
00:20,-0.06290056766160045
00:20,-0.0523713605566746
00:20,-0.047427211133492034
00:20,-0.043581761582127815
00:20,-0.03644021241530855
00:20,-0.024903863761215894
00:20,-0.011719465299395715
00:20,0.00027467496795458707
00:20,0.009796740523713605
00:20,0.013733748397729353
00:20,0.009155832265152902
00:20,-0.0021058414209851675
00:20,-0.01309284013916865
00:20,-0.018036989562351217
00:20,-0.016297381431972166
00:20,-0.009613623878410547
00:20,9.155832265152902e-05
00:20,0.010071415491668192
00:20,0.016480498077275224
00:20,0.018494781175608863
00:20,0.018036989562351217
00:20,0.016388939754623695
00:20,0.013916865043032411
00:20,0.011353232008789599
00:20,0.011444790331441128
00:20,0.016297381431972166
00:20,0.02435451382530672
00:20,0.032411646218641274
00:20,0.03836293719099066
00:20,0.04220838674235488
00:20,0.045321369712506866
00:20,0.04962461087712873
00:20,0.05511811023622047
00:20,0.06097784288591833
00:20,0.06729536714887384
00:20,0.07462003296099616
00:20,0.08514924006592199
00:20,0.10016480498077275
00:20,0.11518036989562351
00:20,0.12424464383812489
00:20,0.12662516022706463
00:20,0.1258926936458524
00:20,0.12479399377403406
00:20,0.1239699688701703
00:20,0.12342061893426112
00:20,0.12296282732100348
00:20,0.12268815235304889
00:20,0.12259659403039737
00:20,0.12277971067570043
00:20,0.12415308551547335
00:20,0.12653360190441312
00:20,0.12717451016297382
00:20,0.12241347738509431
00:20,0.11325764511994141
00:20,0.10401025453213697
00:20,0.09668558872001465
00:20,0.08972715619849844
00:20,0.0785570408350119
00:20,0.05832265152902399
00:20,0.030672038088262223
00:20,0.00375389122871269
00:20,-0.016297381431972166
00:20,-0.030672038088262223
00:20,-0.041659036806445705
00:20,-0.04761032777879509
00:20,-0.048159677714704266
00:20,-0.046328511261673685
00:20,-0.045412928035158395
00:20,-0.0466947445522798
00:20,-0.050265519135689433
00:20,-0.054843435268265885
00:20,-0.058597326496978575
00:20,-0.062168101080388206
00:20,-0.06848562534334371
00:20,-0.07965574070683025
00:20,-0.09320637245925655
00:20,-0.10373557956418239
00:20,-0.10813037905145578
00:20,-0.10794726240615272
00:20,-0.10593297930781909
00:20,-0.10336934627357627
00:20,-0.09979857169016663
00:20,-0.09393883904046878
00:20,-0.0864310565830434
00:20,-0.08029664896539096
00:20,-0.07809924922175426
00:20,-0.07919794909357261
00:20,-0.08112067386925471
00:20,-0.08185314045046695
00:20,-0.08130379051455777
00:20,-0.07993041567478484
00:20,-0.07718366599523897
00:20,-0.07233107489470793
00:20,-0.06601355063175243
00:20,-0.06106940120856986
00:20,-0.05896355978758469
00:20,-0.05878044314228163
00:20,-0.05969602636879692
00:20,-0.06106940120856986
00:20,-0.06116095953122139
00:20,-0.05530122688152353
00:20,-0.039919428676066654
00:20,-0.019410364402124153
00:20,-0.004577916132576451
00:20,-0.0021058414209851675
00:20,-0.009979857169016663
00:20,-0.02151620582310932
00:20,-0.029390221571140816
00:20,-0.03094671305621681
00:20,-0.02911554660318623
00:20,-0.026460355246291888
00:20,-0.021790880791063907
00:20,-0.01409998168833547
00:20,-0.004761032777879509
00:20,0.003845449551364219
00:20,0.010986998718183483
00:20,0.017396081303790514
00:20,0.023622047244094488
00:20,0.027375938472807178
00:20,0.028474638344625526
00:20,0.0290239882805347
00:20,0.030672038088262223
00:20,0.03296099615455045
00:20,0.03497527925288409
00:20,0.03662332906061161
00:20,0.03808826222303607
00:20,0.03946163706280901
00:20,0.040743453579930415
00:20,0.04202527009705182
00:20,0.04303241164621864
00:20,0.04376487822743087
00:20,0.04577916132576451
00:20,0.050997985716901666
00:20,0.058597326496978575
00:20,0.0637245925654642
00:20,0.0615271928218275
00:20,0.055850576817432704
00:20,0.053927852041750594
00:20,0.05630836843069035
00:20,0.058414209851675516
00:20,0.058505768174327046
00:20,0.057590184947811755
00:20,0.05685771836659952
00:20,0.05639992675334188
00:20,0.05548434352682659
00:20,0.05337850210584142
00:20,0.05072331074894708
00:20,0.05072331074894708
00:20,0.058414209851675516
00:20,0.07251419154001099
00:20,0.08368430690349753
00:20,0.08615638161508882
00:20,0.08286028199963377
00:20,0.0785570408350119
00:20,0.07516938289690533
00:20,0.07242263321735946
00:20,0.06949276689251054
00:20,0.06903497527925288
00:20,0.07553561618751145
00:20,0.0899102728438015
00:20,0.10593297930781909
00:20,0.11600439479948728
00:20,0.11856802783373009
00:20,0.11655374473539645
00:20,0.11170115363486541
00:20,0.10364402124153085
00:20,0.09137520600622596
00:20,0.07516938289690533
00:20,0.05896355978758469
00:20,0.04797656106940121
00:20,0.04239150338765794
00:20,0.034242812671671854
00:20,0.015748031496062992
00:20,-0.008606482329243728
00:20,-0.02527009705182201
00:20,-0.028566196667277055
00:20,-0.026002563633034242
00:20,-0.03167917963742904
00:20,-0.050265519135689433
00:20,-0.062168101080388206
00:20,-0.03927852041750595
00:20,0.029481779893792345
00:20,0.13687969236403588
00:20,0.2516938289690533
00:20,0.3280534700604285
00:20,0.34078007690899104
00:20,0.2889580662882256
00:20,0.18110236220472442
00:20,0.039827870353415125
00:20,-0.09970701336751511
00:20,-0.21278154184215345
00:20,-0.2873100164804981
00:20,-0.31496062992125984
00:20,-0.29848013184398464
00:20,-0.25215162058231094
00:20,-0.19474455227980222
00:20,-0.14273942501373374
00:20,-0.10373557956418239
00:20,-0.08038820728804248
00:20,-0.07242263321735946
00:20,-0.07306354147592016
00:20,-0.07562717451016297
00:20,-0.07773301593114815
00:20,-0.07874015748031496
00:20,-0.07745834096319355
00:20,-0.07278886650796558
00:20,-0.06454861746932797
00:20,-0.05511811023622047
00:20,-0.04870902765061344
00:20,-0.04678630287493133
00:20,-0.047335652810840505
00:20,-0.04806811939205274
00:20,-0.04770188610144662
00:20,-0.04587071964841604
00:20,-0.04330708661417323
00:20,-0.04138436183849112
00:20,-0.040651895257278886
00:20,-0.04056033693462736
00:20,-0.040651895257278886
00:20,-0.04147592016114265
00:20,-0.043581761582127815
00:20,-0.046236952939022156
00:20,-0.04788500274674968
00:20,-0.04852591100531038
00:20,-0.049075260941219556
00:20,-0.04944149423182567
00:20,-0.04706097784288592
00:20,-0.03927852041750595
00:20,-0.026551913568943417
00:20,-0.012543490203259476
00:20,-0.0006409082585607032
00:20,0.007874015748031496
00:20,0.014649331624244644
00:20,0.020875297564548617
00:20,0.026551913568943417
00:20,0.03195385460538363
00:20,0.037081120673869254
00:20,0.04138436183849112
00:20,0.04513825306720381
00:20,0.04944149423182567
00:20,0.055850576817432704
00:20,0.06665445889031313
00:20,0.08047976561069402
00:20,0.09164988097418056
00:20,0.09696026368796924
00:20,0.09805896355978759
00:20,0.09769273026918147
00:20,0.0971433803332723
00:20,0.09631935542940853
00:20,0.0949459805896356
00:20,0.0933894891045596
00:20,0.09329793078190808
00:20,0.09476286394433255
00:20,0.09457974729902949
00:20,0.08725508148690717
00:20,0.06866874198864677
00:20,0.04211682841970335
00:20,0.016663614722578282
00:20,-0.0025636330342428126
00:20,-0.016663614722578282
00:20,-0.026826588536898004
00:20,-0.03268632118659586
00:20,-0.03552462918879326
00:20,-0.0381798205456876
00:20,-0.04376487822743087
00:20,-0.05365317707379601
00:20,-0.06518952572788866
00:20,-0.07452847463834462
00:20,-0.08093755722395166
00:20,-0.0842336568394067
00:20,-0.083592748580846
00:20,-0.07956418238417873
00:20,-0.07425379967039004
00:20,-0.07150704999084417
00:20,-0.07489470792895074
00:20,-0.08331807361289141
00:20,-0.09320637245925655
00:20,-0.10236220472440945
00:20,-0.10968687053653177
00:20,-0.11408167002380516
00:20,-0.11563816150888116
00:20,-0.11536348654092657
00:20,-0.11380699505585058
00:20,-0.11014466214978942
00:20,-0.09998168833546969
00:20,-0.08249404870902766
00:20,-0.06573887566379784
00:20,-0.05594213514008423
00:20,-0.05154733565281084
00:20,-0.051089544039553195
00:20,-0.0523713605566746
00:20,-0.051181102362204724
00:20,-0.047335652810840505
00:20,-0.04495513642190075
00:20,-0.04751876945614356
00:20,-0.05603369346273576
00:20,-0.0672038088262223
00:20,-0.07489470792895074
00:20,-0.07672587438198132
00:20,-0.0744369163156931
00:20,-0.07004211682841971
00:20,-0.06390770921076726
00:20,-0.055759018494781175
00:20,-0.047244094488188976
00:20,-0.04184215345174876
00:20,-0.0403772202893243
00:20,-0.04046877861197583
00:20,-0.03946163706280901
00:20,-0.03717267899652078
00:20,-0.03570774583409632
00:20,-0.035982420802050906
00:20,-0.03744735396447537
00:20,-0.040835011902581944
00:20,-0.04568760300311298
00:20,-0.049075260941219556
00:20,-0.050265519135689433
00:20,-0.05081486907159861
00:20,-0.05127266068485625
00:20,-0.05127266068485625
00:20,-0.05054019410364402
00:20,-0.049166819263871085
00:20,-0.04706097784288592
00:20,-0.04303241164621864
00:20,-0.03625709577000549
00:20,-0.02819996337667094
00:20,-0.021241530855154733
00:20,-0.016297381431972166
00:20,-0.012543490203259476
00:20,-0.010712323750228896
00:20,-0.014466214978941586
00:20,-0.026918146859549533
00:20,-0.04413111151803699
00:20,-0.05639992675334188
00:20,-0.05722395165720564
00:20,-0.047427211133492034
00:20,-0.03341878776780809
00:20,-0.021241530855154733
00:20,-0.012635048525911005
00:20,-0.008972715619849844
00:20,-0.011353232008789599
00:20,-0.016663614722578282
00:20,-0.02060062259659403
00:20,-0.02234023072697308
00:20,-0.024171397180003662
00:20,-0.027925288408716352
00:20,-0.031496062992125984
00:20,-0.030397363120307636
00:20,-0.022798022340230727
00:20,-0.010895440395531954
00:20,0.0012818165171214063
00:20,0.009522065555759018
00:20,0.011902581944698773
00:20,0.009979857169016663
00:20,0.006500640908258561
00:20,0.004486357809924922
00:20,0.004852591100531038
00:20,0.005768174327046328
00:20,0.007416224134773851
00:20,0.01593114814136605
00:20,0.03735579564182384
00:20,0.06647134224501007
00:20,0.08981871452114998
00:20,0.10007324665812123
00:20,0.10007324665812123
00:20,0.09247390587804431
00:20,0.0750778245742538
00:20,0.046420069584325215
00:20,0.014466214978941586
00:20,-0.006775315876213148
00:20,-0.011444790331441128
00:20,-0.004394799487273393
00:20,0.0058597326496978575
00:20,0.013916865043032411
00:20,0.019501922724775682
00:20,0.022798022340230727
00:20,0.01693828969053287
00:20,-0.004394799487273393
00:20,-0.03003112982970152
00:20,-0.03360190441311115
00:20,0.00375389122871269
00:20,0.07819080754440579
00:20,0.16736861380699505
00:20,0.2463834462552646
00:20,0.29353598242080203
00:20,0.29408533235671125
00:20,0.24235488005859732
00:20,0.1444790331441128
00:20,0.02435451382530672
00:20,-0.09045962277971067
00:20,-0.18760300311298297
00:20,-0.2514191540010987
00:20,-0.26167368613806996
00:20,-0.22532503204541293
00:20,-0.17139718000366233
00:20,-0.12140633583592748
00:20,-0.08652261490569493
00:20,-0.07013367515107123
00:20,-0.06262589269364585
00:20,-0.051913568943416956
00:20,-0.03579930415674785
00:20,-0.019044131111518037
00:20,-0.008240249038637612
00:20,-0.006866874198864677
00:20,-0.01126167368613807
00:20,-0.014191540010986999
00:20,-0.012909723493865592
00:20,-0.010071415491668192
00:20,-0.008972715619849844
00:20,-0.007874015748031496
00:20,-0.003387657938106574
00:20,0.0014649331624244644
00:20,0.003204541292803516
00:20,0.0021058414209851675
00:20,-0.00018311664530305805
00:20,-0.0028383080021973997
00:20,-0.004852591100531038
00:20,-0.005401941036440212
00:20,-0.004852591100531038
00:20,-0.005310382713788683
00:20,-0.007324665812122322
00:20,-0.008881157297198315
00:20,-0.007324665812122322
00:20,-0.0016480498077275224
00:20,0.008972715619849844
00:20,0.02435451382530672
00:20,0.04056033693462736
00:20,0.05227980223402307
00:20,0.057590184947811755
00:20,0.05887200146493316
00:20,0.05914667643288775
00:20,0.06079472624061527
00:20,0.0652810840505402
00:20,0.0715986083134957
00:20,0.0763596410913752
00:20,0.07828236586705732
00:20,0.0785570408350119
00:20,0.07864859915766344
00:20,0.08102911554660319
00:20,0.08881157297198315
00:20,0.10382713788683391
00:20,0.12158945248123054
00:20,0.13413294268449003
00:20,0.13871085881706646
00:20,0.13834462552646035
00:20,0.13605566746017214
00:20,0.13330891778062626
00:20,0.13129463468229263
00:20,0.13202710126350486
00:20,0.13687969236403588
00:20,0.14310565830433986
00:20,0.1457608496612342
00:20,0.14127449185130928
00:20,0.12818165171214063
00:20,0.10941219556857719
00:20,0.09128364768357444
00:20,0.07681743270463286
00:20,0.06546420069584326
00:20,0.05603369346273576
00:20,0.04522981138985534
00:20,0.029664896539095403
00:20,0.012268815235304889
00:20,-0.0011902581944698773
00:20,-0.009522065555759018
00:20,-0.014557773301593115
00:20,-0.016663614722578282
00:20,-0.014374656656290057
00:20,-0.008698040651895257
00:20,-0.0031129829701519868
00:20,-0.0003662332906061161
00:20,-0.0015564914850759934
00:20,-0.007965574070683025
00:20,-0.020325947628639443
00:20,-0.036073979124702435
00:20,-0.05054019410364402
00:20,-0.06079472624061527
00:20,-0.06665445889031313
00:20,-0.069401208569859
00:20,-0.07031679179637429
00:20,-0.06976744186046512
00:20,-0.06573887566379784
00:20,-0.05630836843069035
00:20,-0.04339864493682476
00:20,-0.03085515473356528
00:20,-0.021149972532503204
00:20,-0.015656473173411463
00:20,-0.017029848013184398
00:20,-0.02710126350485259
00:20,-0.040743453579930415
00:20,-0.04788500274674968
00:20,-0.04596227797106757
00:20,-0.039003845449551364
00:20,-0.02984801318439846
00:20,-0.021882439113715436
00:20,-0.01785387291704816
00:20,-0.016388939754623695
00:20,-0.01593114814136605
00:20,-0.01602270646401758
00:20,-0.015564914850759934
00:20,-0.012451931880607947
00:20,-0.005768174327046328
00:20,0.003204541292803516
00:20,0.010437648782274309
00:20,0.011444790331441128
00:20,0.00750778245742538
00:20,0.0021058414209851675
00:20,-0.0030214246475004577
00:20,-0.006775315876213148
00:20,-0.00659219923091009
00:20,-0.0014649331624244644
00:20,0.0061344076176524445
00:20,0.010895440395531954
00:20,0.008148690715986083
00:20,-0.0018311664530305805
00:20,-0.013275956784471708
00:20,-0.020875297564548617
00:20,-0.02517853872917048
00:20,-0.02801684673136788
00:20,-0.0290239882805347
00:20,-0.026735030214246475
00:20,-0.019868156015381798
00:20,-0.009796740523713605
00:20,-0.0010071415491668192
00:20,0.003204541292803516
00:20,0.00375389122871269
00:20,0.003479216260758103
00:20,0.004486357809924922
00:20,0.006866874198864677
00:20,0.008331807361289141
00:20,0.007141549166819264
00:20,0.004486357809924922
00:20,0.0024720747115912836
00:20,0.00027467496795458707
00:20,-0.004303241164621864
00:20,-0.012909723493865592
00:20,-0.0233473722761399
00:20,-0.03085515473356528
00:20,-0.03204541292803516
00:20,-0.02728438015015565
00:20,-0.01968503937007874
00:20,-0.010712323750228896
00:20,-0.0008240249038637612
00:20,0.00842336568394067
00:20,0.014191540010986999
00:20,0.015473356528108405
00:20,0.013825306720380882
00:20,0.012360373557956418
00:20,0.015290239882805347
00:20,0.0261856802783373
00:20,0.04220838674235488
00:20,0.05328694378318989
00:20,0.05182201062076543
00:20,0.038820728804248306
00:20,0.021790880791063907
00:20,0.008240249038637612
00:20,0.0
00:20,-0.0058597326496978575
00:20,-0.013001281816517121
00:20,-0.024903863761215894
00:20,-0.04001098699871818
00:20,-0.05264603552462919
00:20,-0.05932979307819081
00:20,-0.06015381798205457
00:20,-0.056766160043947994
00:20,-0.053927852041750594
00:20,-0.05813953488372093
00:20,-0.06683757553561619
00:20,-0.06784471708478301
00:20,-0.04568760300311298
00:20,0.009522065555759018
00:20,0.08954403955319538
00:20,0.17341146310199598
00:20,0.24473539644753708
00:20,0.28694378318989194
00:20,0.2827321003479216
00:20,0.22724775682109505
00:20,0.12735762680827686
00:20,0.0011902581944698773
00:20,-0.12223036073979125
00:20,-0.21662699139351768
00:20,-0.27082951840322284
00:20,-0.2848379417689068
00:20,-0.2633217359457975
00:20,-0.2167185497161692
00:20,-0.1643471891594946
00:20,-0.12552646035524628
00:20,-0.10263687969236404
00:20,-0.08304339864493683
00:20,-0.06189342611243362
00:20,-0.045504486357809924
00:20,-0.03579930415674785
00:20,-0.027375938472807178
00:20,-0.017396081303790514
00:20,-0.00943050723310749
00:20,-0.005401941036440212
00:20,-0.0031129829701519868
00:20,-0.0010986998718183483
00:20,0.0
00:20,-0.0012818165171214063
00:20,-0.0058597326496978575
00:20,-0.01309284013916865
00:20,-0.020051272660684856
00:20,-0.021790880791063907
00:20,-0.016297381431972166
00:20,-0.009155832265152902
00:20,-0.0060428492950009155
00:20,-0.0058597326496978575
00:20,-0.005218824391137154
00:20,-0.0021058414209851675
00:20,0.004852591100531038
00:20,0.013825306720380882
00:20,0.02060062259659403
00:20,0.023713605566746017
00:20,0.02444607214795825
00:20,0.024537630470609778
00:20,0.024629188793261307
00:20,0.02545321369712507
00:20,0.026551913568943417
00:20,0.027650613440761765
00:20,0.030488921442959165
00:20,0.03836293719099066
00:20,0.05356161875114448
00:20,0.07233107489470793
00:20,0.08633949826039188
00:20,0.09320637245925655
00:20,0.09805896355978759
00:20,0.10620765427577367
00:20,0.11865958615638161
00:20,0.13239333455411098
00:20,0.1425563083684307
00:20,0.14685954953305255
00:20,0.1466764328877495
00:20,0.1457608496612342
00:20,0.14768357443691632
00:20,0.15464200695843253
00:20,0.16453030580479766
00:20,0.1715802966489654
00:20,0.1715802966489654
00:20,0.16480498077275224
00:20,0.1551913568943417
00:20,0.1469511078557041
00:20,0.13871085881706646
00:20,0.1239699688701703
00:20,0.09888298846365134
00:20,0.06958432521516206
00:20,0.047335652810840505
00:20,0.03570774583409632
00:20,0.027925288408716352
00:20,0.018952572788866508
00:20,0.00933894891045596
00:20,-0.0010986998718183483
00:20,-0.01309284013916865
00:20,-0.024079838857352133
00:20,-0.031496062992125984
00:20,-0.0347006042849295
00:20,-0.03497527925288409
00:20,-0.03378502105841421
00:20,-0.032411646218641274
00:20,-0.031496062992125984
00:20,-0.031221388024171397
00:20,-0.03167917963742904
00:20,-0.033235671122505035
00:20,-0.0375389122871269
00:20,-0.04596227797106757
00:20,-0.05722395165720564
00:20,-0.06738692547152536
00:20,-0.07361289141182933
00:20,-0.07608496612342062
00:20,-0.07562717451016297
00:20,-0.0715986083134957
00:20,-0.062351217725691264
00:20,-0.0488921442959165
00:20,-0.035249954220838674
00:20,-0.02710126350485259
00:20,-0.028566196667277055
00:20,-0.03836293719099066
00:20,-0.049075260941219556
00:20,-0.055209668558872
00:20,-0.056674601721296465
00:20,-0.05612525178538729
00:20,-0.054751876945614356
00:20,-0.05218824391137154
00:20,-0.048251236037355795
00:20,-0.04312396996887017
00:20,-0.036165537447353964
00:20,-0.02819996337667094
00:20,-0.021973997436366965
00:20,-0.01867789782091192
00:20,-0.017212964658487456
00:20,-0.01693828969053287
00:20,-0.0176707562717451
00:20,-0.01858633949826039
00:20,-0.019044131111518037
00:20,-0.019959714338033327
00:20,-0.02243178904962461
00:20,-0.02636879692364036
00:20,-0.029207104925837758
00:20,-0.029664896539095403
00:20,-0.029390221571140816
00:20,-0.02984801318439846
00:20,-0.030488921442959165
00:20,-0.030488921442959165
00:20,-0.029390221571140816
00:20,-0.027375938472807178
00:20,-0.024812305438564365
00:20,-0.02261490569492767
00:20,-0.020875297564548617
00:20,-0.017487639626442043
00:20,-0.010895440395531954
00:20,-0.005218824391137154
00:20,-0.00842336568394067
00:20,-0.021882439113715436
00:20,-0.03735579564182384
00:20,-0.04422266984068852
00:20,-0.04019410364402124
00:20,-0.03286943783189892
00:20,-0.03003112982970152
00:20,-0.032228529573338216
00:20,-0.034151254349020325
00:20,-0.031129829701519868
00:20,-0.023988280534700604
00:20,-0.017212964658487456
00:20,-0.011719465299395715
00:20,-0.0060428492950009155
00:20,-0.0015564914850759934
00:20,-0.0015564914850759934
00:20,-0.005493499359091741
00:20,-0.00933894891045596
00:20,-0.009796740523713605
00:20,-0.007599340780076909
00:20,-0.004852591100531038
00:20,-0.0022889580662882256
00:20,-0.0009155832265152902
00:20,-0.003296099615455045
00:20,-0.009522065555759018
00:20,-0.015198681560153818
00:20,-0.016663614722578282
00:20,-0.014374656656290057
00:20,-0.010895440395531954
00:20,-0.007965574070683025
00:20,-0.005127266068485625
00:20,-0.0019227247756821095
00:20,-0.0004577916132576451
00:20,-0.0012818165171214063
00:20,0.0
00:20,0.0061344076176524445
00:20,0.014832448269547702
00:20,0.02261490569492767
00:20,0.027925288408716352
00:20,0.030214246475004577
00:20,0.029481779893792345
00:20,0.025086980406518952
00:20,0.015564914850759934
00:20,0.0021973997436366965
00:20,-0.01034609045962278
00:20,-0.01858633949826039
00:20,-0.02243178904962461
00:20,-0.022889580662882256
00:20,-0.020142830983336385
00:20,-0.014283098333638528
00:20,-0.00750778245742538
00:20,-0.004120124519318806
00:20,-0.008148690715986083
00:20,-0.01886101446621498
00:20,-0.028383080021973997
00:20,-0.02527009705182201
00:20,-0.0022889580662882256
00:20,0.04001098699871818
00:20,0.10098882988463652
00:20,0.1772569126533602
00:20,0.2524262955502655
00:20,0.3047976561069401
00:20,0.312213880241714
00:20,0.25105292071049257
00:20,0.12323750228895806
00:20,-0.029481779893792345
00:20,-0.16535433070866143
00:20,-0.2590184947811756
00:20,-0.29069767441860467
00:20,-0.2681743270463285
00:20,-0.22468412378685224
00:20,-0.1788134041384362
00:20,-0.13010437648782275
00:20,-0.08121223219190625
00:20,-0.0432155282915217
00:20,-0.024812305438564365
00:20,-0.021973997436366965
00:20,-0.02444607214795825
00:20,-0.025636330342428126
00:20,-0.024537630470609778
00:20,-0.022065555759018494
00:20,-0.01977659769273027
00:20,-0.01867789782091192
00:20,-0.018952572788866508
00:20,-0.019868156015381798
00:20,-0.020966855887200146
00:20,-0.02252334737227614
00:20,-0.023713605566746017
00:20,-0.02160776414576085
00:20,-0.013459073429774766
00:20,-0.0015564914850759934
00:20,0.006500640908258561
00:20,0.006409082585607032
00:20,0.0009155832265152902
00:20,-0.00558505768174327
00:20,-0.011627906976744186
00:20,-0.016663614722578282
00:20,-0.017487639626442043
00:20,-0.008881157297198315
00:20,0.007049990844167735
00:20,0.01968503937007874
00:20,0.02243178904962461
00:20,0.018403222852957334
00:20,0.014832448269547702
00:20,0.014740889946896173
00:20,0.015198681560153818
00:20,0.013733748397729353
00:20,0.012360373557956418
00:20,0.015198681560153818
00:20,0.02536165537447354
00:20,0.041018128547885
00:20,0.057681743270463284
00:20,0.07260574986266252
00:20,0.08395898187145212
00:20,0.09045962277971067
00:20,0.09256546420069585
00:20,0.09274858084599891
00:20,0.09522065555759018
00:20,0.10611609595312214
00:20,0.12717451016297382
00:20,0.15070499908441679
00:20,0.16636147225782824
00:20,0.17084783006775317
00:20,0.16837575535616187
00:20,0.1649880974180553
00:20,0.16379783922358543
00:20,0.16334004761032778
00:20,0.15738875663797838
00:20,0.14090825856070316
00:20,0.11847646951107856
00:20,0.09952389672221205
00:20,0.083592748580846
00:20,0.06290056766160045
00:20,0.03863761215894525
00:20,0.01959348104742721
00:20,0.006866874198864677
00:20,-0.004303241164621864
00:20,-0.015748031496062992
00:20,-0.026460355246291888
00:20,-0.0347006042849295
00:20,-0.038912287126899835
00:20,-0.03827137886833913
00:20,-0.03396813770371727
00:20,-0.028657754989928584
00:20,-0.024903863761215894
00:20,-0.023988280534700604
00:20,-0.02636879692364036
00:20,-0.032411646218641274
00:20,-0.040743453579930415
00:20,-0.048159677714704266
00:20,-0.05218824391137154
00:20,-0.05227980223402307
00:20,-0.048251236037355795
00:20,-0.04248306171030947
00:20,-0.042757736678264054
00:20,-0.05548434352682659
00:20,-0.07526094121955686
00:20,-0.08899468961728621
00:20,-0.09274858084599891
00:20,-0.0921076725874382
00:20,-0.09064273942501373
00:20,-0.08551547335652811
00:20,-0.0731550997985717
00:20,-0.056674601721296465
00:20,-0.044405786485991576
00:20,-0.03955319538546054
00:20,-0.03918696209485442
00:20,-0.03964475370811207
00:20,-0.039827870353415125
00:20,-0.039736312030763596
00:20,-0.03946163706280901
00:20,-0.03854605383629372
00:20,-0.03625709577000549
00:20,-0.0325032045412928
00:20,-0.028840871635231642
00:20,-0.026643471891594946
00:20,-0.026551913568943417
00:20,-0.028840871635231642
00:20,-0.03360190441311115
00:20,-0.03927852041750595
00:20,-0.0438564365500824
00:20,-0.04568760300311298
00:20,-0.04312396996887017
00:20,-0.03378502105841421
00:20,-0.019044131111518037
00:20,-0.005310382713788683
00:20,0.0021058414209851675
00:20,0.004211682841970335
00:20,0.004211682841970335
00:20,0.003204541292803516
00:20,-0.00018311664530305805
00:20,-0.007874015748031496
00:20,-0.017396081303790514
00:20,-0.023896722212049075
00:20,-0.025911005310382713
00:20,-0.028291521699322468
00:20,-0.03589086247939938
00:20,-0.047335652810840505
00:20,-0.05530122688152353
00:20,-0.05557590184947812
00:20,-0.05218824391137154
00:20,-0.04980772752243179
00:20,-0.048159677714704266
00:20,-0.04495513642190075
00:20,-0.040651895257278886
00:20,-0.03772202893242996
00:20,-0.03680644570591467
00:20,-0.03570774583409632
00:20,-0.0318622962827321
00:20,-0.025544772019776597
00:20,-0.019868156015381798
00:20,-0.017304522981138985
00:20,-0.01876945614356345
00:20,-0.02426295550265519
00:20,-0.0318622962827321
00:20,-0.03763047060977843
00:20,-0.03836293719099066
00:20,-0.0325032045412928
00:20,-0.02169932246841238
00:20,-0.012543490203259476
00:20,-0.010712323750228896
00:20,-0.014649331624244644
00:20,-0.020417505951290972
00:20,-0.026460355246291888
00:20,-0.03268632118659586
00:20,-0.038820728804248306
00:20,-0.04413111151803699
00:20,-0.04614539461637063
00:20,-0.040651895257278886
00:20,-0.025636330342428126
00:20,-0.006775315876213148
00:20,0.0060428492950009155
00:20,0.00933894891045596
00:20,0.0062259659403039735
00:20,0.0013733748397729353
00:20,-0.0015564914850759934
00:20,0.0005493499359091741
00:20,0.010162973814319722
00:20,0.024171397180003662
00:20,0.03552462918879326
00:20,0.039827870353415125
00:20,0.03625709577000549
00:20,0.024903863761215894
00:20,0.009247390587804431
00:20,-0.003570774583409632
00:20,-0.009613623878410547
00:20,-0.010437648782274309
00:20,-0.009705182201062076
00:20,-0.010986998718183483
00:20,-0.01684673136788134
00:20,-0.026643471891594946
00:20,-0.03808826222303607
00:20,-0.04797656106940121
00:20,-0.050997985716901666
00:20,-0.04596227797106757
00:20,-0.03653177073796008
00:20,-0.021149972532503204
00:20,0.008789598974546786
00:20,0.06070316791796374
00:20,0.13486540926570226
00:20,0.22221204907526093
00:20,0.29646584874565096
00:20,0.32759567844717086
00:20,0.29884636513459073
00:20,0.20609778428859182
00:20,0.06894341695660136
00:20,-0.07004211682841971
00:20,-0.179820545687603
00:20,-0.25096136238784106
00:20,-0.27897820911920895
00:20,-0.2633217359457975
00:20,-0.21900750778245742
00:20,-0.17039003845449552
00:20,-0.12827321003479217
00:20,-0.09091741439296833
00:20,-0.06180186778978209
00:20,-0.04559604468046145
00:20,-0.04001098699871818
00:20,-0.04001098699871818
00:20,-0.04120124519318806
00:20,-0.04184215345174876
00:20,-0.04193371177440029
00:20,-0.04193371177440029
00:20,-0.04184215345174876
00:20,-0.04147592016114265
00:20,-0.03955319538546054
00:20,-0.034242812671671854
00:20,-0.02353048892144296
00:20,-0.007874015748031496
00:20,0.005401941036440212
00:20,0.007782457425379967
00:20,9.155832265152902e-05
00:20,-0.011994140267350302
00:20,-0.025636330342428126
00:20,-0.03543307086614173
00:20,-0.03589086247939938
00:20,-0.02700970518220106
00:20,-0.013550631752426295
00:20,-0.003662332906061161
00:20,-0.0019227247756821095
00:20,-0.003845449551364219
00:20,-0.005035707745834096
00:20,-0.005768174327046328
00:20,-0.006958432521516206
00:20,-0.008057132393334554
00:20,-0.008514924006592199
00:20,-0.007690899102728438
00:20,-0.004852591100531038
00:20,0.0022889580662882256
00:20,0.01675517304522981
00:20,0.03744735396447537
00:20,0.05722395165720564
00:20,0.06811939205273759
00:20,0.0687603003112983
00:20,0.06546420069584326
00:20,0.0672038088262223
00:20,0.0779161325764512
00:20,0.09293169749130196
00:20,0.10520051272660685
00:20,0.1141732283464567
00:20,0.123054385643655
00:20,0.1334004761032778
00:20,0.1425563083684307
00:20,0.1479582494048709
00:20,0.1485075993407801
00:20,0.14530305804797655
00:20,0.1413660501739608
00:20,0.1381615088811573
00:20,0.13202710126350486
00:20,0.11801867789782092
00:20,0.0984251968503937
00:20,0.08157846548251237
00:20,0.07233107489470793
00:20,0.06729536714887384
00:20,0.05914667643288775
00:20,0.04220838674235488
00:20,0.016205823109320637
00:20,-0.01126167368613807
00:20,-0.029664896539095403
00:20,-0.03653177073796008
00:20,-0.03808826222303607
00:20,-0.03937007874015748
00:20,-0.040835011902581944
00:20,-0.04193371177440029
00:20,-0.04211682841970335
00:20,-0.04184215345174876
00:20,-0.041750595129097234
00:20,-0.04284929500091558
00:20,-0.045412928035158395
00:20,-0.047427211133492034
00:20,-0.04614539461637063
00:20,-0.04184215345174876
00:20,-0.0375389122871269
00:20,-0.035066837575535616
00:20,-0.034059696026368796
00:20,-0.03387657938106574
00:20,-0.03442592931697491
00:20,-0.03561618751144479
00:20,-0.03763047060977843
00:20,-0.04019410364402124
00:20,-0.04220838674235488
00:20,-0.04294085332356711
00:20,-0.042757736678264054
00:20,-0.04294085332356711
00:20,-0.042666178355612525
00:20,-0.041018128547885
00:20,-0.038820728804248306
00:20,-0.037905145577733015
00:20,-0.03854605383629372
00:20,-0.03863761215894525
00:20,-0.03717267899652078
00:20,-0.03717267899652078
00:20,-0.040835011902581944
00:20,-0.04394799487273393
00:20,-0.041567478483794176
00:20,-0.033327229445156564
00:20,-0.02343893059879143
00:20,-0.01675517304522981
00:20,-0.014557773301593115
00:20,-0.015198681560153818
00:20,-0.017487639626442043
00:20,-0.021058414209851675
00:20,-0.025636330342428126
00:20,-0.03076359641091375
00:20,-0.034242812671671854
00:20,-0.03286943783189892
00:20,-0.024812305438564365
00:20,-0.012635048525911005
00:20,-0.0019227247756821095
00:20,0.003845449551364219
00:20,0.005310382713788683
00:20,0.005127266068485625
00:20,0.005310382713788683
00:20,0.006317524262955503
00:20,0.006958432521516206
00:20,0.004944149423182567
00:20,-0.0012818165171214063
00:20,-0.01025453213697125
00:20,-0.017396081303790514
00:20,-0.0205090642739425
00:20,-0.022889580662882256
00:20,-0.02719282182750412
00:20,-0.028657754989928584
00:20,-0.01886101446621498
00:20,0.003296099615455045
00:20,0.026460355246291888
00:20,0.03863761215894525
00:20,0.03836293719099066
00:20,0.03158762131477751
00:20,0.023164255630836843
00:20,0.015107123237502289
00:20,0.008514924006592199
00:20,0.005676616004394799
00:20,0.0061344076176524445
00:20,0.006775315876213148
00:20,0.007416224134773851
00:20,0.010437648782274309
00:20,0.014466214978941586
00:20,0.014832448269547702
00:20,0.008881157297198315
00:20,-0.0021973997436366965
00:20,-0.01409998168833547
00:20,-0.022706464017579198
00:20,-0.02627723860098883
00:20,-0.025819446987731184
00:20,-0.023072697308185314
00:20,-0.020051272660684856
00:20,-0.019044131111518037
00:20,-0.02069218091924556
00:20,-0.02353048892144296
00:20,-0.026002563633034242
00:20,-0.027467496795458707
00:20,-0.028383080021973997
00:20,-0.02893242995788317
00:20,-0.029298663248489287
00:20,-0.028749313312580113
00:20,-0.02435451382530672
00:20,-0.016572056399926753
00:20,-0.010162973814319722
00:20,-0.008698040651895257
00:20,-0.010071415491668192
00:20,-0.007782457425379967
00:20,0.00375389122871269
00:20,0.021882439113715436
00:20,0.036989562351217725
00:20,0.04431422816334005
00:20,0.04715253616553745
00:20,0.049258377586522614
00:20,0.05136421900750778
00:20,0.053744735396447536
00:20,0.05621681010803882
00:20,0.05621681010803882
00:20,0.05136421900750778
00:20,0.04403955319538546
00:20,0.03808826222303607
00:20,0.03351034609045962
00:20,0.02819996337667094
00:20,0.022248672404321553
00:20,0.016480498077275224
00:20,0.007965574070683025
00:20,-0.00558505768174327
00:20,-0.02069218091924556
00:20,-0.034151254349020325
00:20,-0.04513825306720381
00:20,-0.04852591100531038
00:20,-0.041659036806445705
00:20,-0.02517853872917048
00:20,0.00018311664530305805
00:20,0.0325032045412928
00:20,0.0772752243178905
00:20,0.14365500824024904
00:20,0.22221204907526093
00:20,0.28904962461087713
00:20,0.3242080205090643
00:20,0.30626258926936456
00:20,0.22038088262223035
00:20,0.08514924006592199
00:20,-0.05969602636879692
00:20,-0.1820179454312397
00:20,-0.2547152536165537
00:20,-0.2613990111701154
00:20,-0.21946529939571507
00:20,-0.16764328877494963
00:20,-0.12918879326130744
00:20,-0.10675700421168284
00:20,-0.09412195568577184
00:20,-0.07947262406152719
00:20,-0.055667460172129646
00:20,-0.02984801318439846
00:20,-0.013550631752426295
00:20,-0.009247390587804431
00:20,-0.010620765427577367
00:20,-0.012543490203259476
00:20,-0.013550631752426295
00:20,-0.01309284013916865
00:20,-0.010895440395531954
00:20,-0.007599340780076909
00:20,-0.005035707745834096
00:20,-0.004394799487273393
00:20,-0.004577916132576451
00:20,-0.00375389122871269
00:20,-0.0013733748397729353
00:20,0.0005493499359091741
00:20,0.0004577916132576451
00:20,-0.0010071415491668192
00:20,-0.0020142830983336385
00:20,-0.0008240249038637612
00:20,0.0015564914850759934
00:20,0.003387657938106574
00:20,0.004486357809924922
00:20,0.006500640908258561
00:20,0.011902581944698773
00:20,0.021333089177806262
00:20,0.031129829701519868
00:20,0.03671488738326314
00:20,0.037996703900384544
00:20,0.03836293719099066
00:20,0.04092657022523347
00:20,0.045504486357809924
00:20,0.04989928584508332
00:20,0.05227980223402307
00:20,0.05227980223402307
00:20,0.05163889397546237
00:20,0.055759018494781175
00:20,0.06985900018311665
00:20,0.09311481413660502
00:20,0.11838491118842703
00:20,0.13825306720380884
00:20,0.1485991576634316
00:20,0.15088811572971983
00:20,0.14978941585790148
00:20,0.14878227430873467
00:20,0.1485991576634316
00:20,0.14878227430873467
00:20,0.14823292437282548
00:20,0.14557773301593116
00:20,0.13962644204358177
00:20,0.13257645119941402
00:20,0.12754074345357994
00:20,0.12561801867789782
00:20,0.12516022706464017
00:20,0.12168101080388208
00:20,0.10968687053653177
00:20,0.08853689800402857
00:20,0.06518952572788866
00:20,0.04660318622962827
00:20,0.03286943783189892
00:20,0.019410364402124153
00:20,0.0021973997436366965
00:20,-0.016114264786669108
00:20,-0.028749313312580113
00:20,-0.034059696026368796
00:20,-0.03717267899652078
00:20,-0.04239150338765794
00:20,-0.05054019410364402
00:20,-0.05932979307819081
00:20,-0.06610510895440395
00:20,-0.06995055850576817
00:20,-0.07169016663614723
00:20,-0.06976744186046512
00:20,-0.06097784288591833
00:20,-0.04843435268265885
00:20,-0.04056033693462736
00:20,-0.04239150338765794
00:20,-0.050265519135689433
00:20,-0.05722395165720564
00:20,-0.060520051272660684
00:20,-0.0615271928218275
00:20,-0.062442776048342793
00:20,-0.06491485075993408
00:20,-0.0706830250869804
00:20,-0.07809924922175426
00:20,-0.08221937374107306
00:20,-0.08020509064273942
00:20,-0.07452847463834462
00:20,-0.06912653360190442
00:20,-0.06464017579197949
00:20,-0.05923823475553928
00:20,-0.053012268815235304
00:20,-0.048251236037355795
00:20,-0.046328511261673685
00:20,-0.046420069584325215
00:20,-0.04706097784288592
00:20,-0.047244094488188976
00:20,-0.046420069584325215
00:20,-0.04413111151803699
00:20,-0.04129280351583959
00:20,-0.03937007874015748
00:20,-0.038912287126899835
00:20,-0.03845449551364219
00:20,-0.03589086247939938
00:20,-0.03076359641091375
00:20,-0.024720747115912836
00:20,-0.020051272660684856
00:20,-0.018311664530305805
00:20,-0.01968503937007874
00:20,-0.023164255630836843
00:20,-0.027925288408716352
00:20,-0.033235671122505035
00:20,-0.03717267899652078
00:20,-0.03854605383629372
00:20,-0.03717267899652078
00:20,-0.03442592931697491
00:20,-0.03259476286394433
00:20,-0.03268632118659586
00:20,-0.03341878776780809
00:20,-0.03369346273576268
00:20,-0.03378502105841421
00:20,-0.03396813770371727
00:20,-0.034151254349020325
00:20,-0.03451748763962644
00:20,-0.0347006042849295
00:20,-0.033144112799853506
00:20,-0.027375938472807178
00:20,-0.01785387291704816
00:20,-0.009064273942501373
00:20,-0.00466947445522798
00:20,-0.004211682841970335
00:20,-0.005127266068485625
00:20,-0.005768174327046328
00:20,-0.00659219923091009
00:20,-0.00943050723310749
00:20,-0.01583958981871452
00:20,-0.02353048892144296
00:20,-0.026460355246291888
00:20,-0.021333089177806262
00:20,-0.012909723493865592
00:20,-0.008972715619849844
00:20,-0.011994140267350302
00:20,-0.017304522981138985
00:20,-0.02060062259659403
00:20,-0.021241530855154733
00:20,-0.021058414209851675
00:20,-0.02160776414576085
00:20,-0.022798022340230727
00:20,-0.024079838857352133
00:20,-0.024720747115912836
00:20,-0.024903863761215894
00:20,-0.025086980406518952
00:20,-0.025636330342428126
00:20,-0.025819446987731184
00:20,-0.024537630470609778
00:20,-0.020783739241897088
00:20,-0.01583958981871452
00:20,-0.012268815235304889
00:20,-0.011811023622047244
00:20,-0.01318439846182018
00:20,-0.013733748397729353
00:20,-0.01318439846182018
00:20,-0.013916865043032411
00:20,-0.017396081303790514
00:20,-0.021882439113715436
00:20,-0.02353048892144296
00:20,-0.02234023072697308
00:20,-0.02169932246841238
00:20,-0.022889580662882256
00:20,-0.02151620582310932
00:20,-0.010529207104925838
00:20,0.012909723493865592
00:20,0.041018128547885
00:20,0.060520051272660684
00:20,0.06738692547152536
00:20,0.06628822559970701
00:20,0.0615271928218275
00:20,0.05328694378318989
00:20,0.041567478483794176
00:20,0.028291521699322468
00:20,0.015107123237502289
00:20,0.0016480498077275224
00:20,-0.011353232008789599
00:20,-0.022248672404321553
00:20,-0.030214246475004577
00:20,-0.03479216260758103
00:20,-0.037081120673869254
00:20,-0.0375389122871269
00:20,-0.033144112799853506
00:20,-0.022248672404321553
00:20,-0.006317524262955503
00:20,0.01785387291704816
00:20,0.05557590184947812
00:20,0.10684856253433438
00:20,0.17148873832631387
00:20,0.2407068302508698
00:20,0.2889580662882256
00:20,0.29857169016663615
00:20,0.2645119941402673
00:20,0.18064457059146677
00:20,0.057681743270463284
00:20,-0.0731550997985717
00:20,-0.1842153451748764
00:20,-0.25572239516572054
00:20,-0.27275224317890495
00:20,-0.23777696392602088
00:20,-0.1807361289141183
00:20,-0.13239333455411098
00:20,-0.0968687053653177
00:20,-0.06583043398644937
00:20,-0.040743453579930415
00:20,-0.02627723860098883
00:20,-0.01977659769273027
00:20,-0.015656473173411463
00:20,-0.011811023622047244
00:20,-0.009979857169016663
00:20,-0.012360373557956418
00:20,-0.01675517304522981
00:20,-0.01684673136788134
00:20,-0.007874015748031496
00:20,0.0060428492950009155
00:20,0.016663614722578282
00:20,0.020234389305987914
00:20,0.01977659769273027
00:20,0.01886101446621498
00:20,0.01886101446621498
00:20,0.019135689434169566
00:20,0.01785387291704816
00:20,0.013825306720380882
00:20,0.007874015748031496
00:20,0.00375389122871269
00:20,0.004486357809924922
00:20,0.010071415491668192
00:20,0.017121406335835927
00:20,0.021058414209851675
00:20,0.02142464750045779
00:20,0.020875297564548617
00:20,0.021149972532503204
00:20,0.02261490569492767
00:20,0.025544772019776597
00:20,0.029481779893792345
00:20,0.034151254349020325
00:20,0.04001098699871818
00:20,0.04861746932796191
00:20,0.059512909723493865
00:20,0.06995055850576817
00:20,0.07782457425379967
00:20,0.0842336568394067
00:20,0.09064273942501373
00:20,0.09741805530122688
00:20,0.10401025453213697
00:20,0.11096868705365318
00:20,0.11838491118842703
00:20,0.12433620216077641
00:20,0.12763230177623147
00:20,0.12854788500274675
00:20,0.1280900933894891
00:20,0.12882255997070133
00:20,0.13449917597509614
00:20,0.1457608496612342
00:20,0.15912836476835746
00:20,0.16984068851858633
00:20,0.17515107123237503
00:20,0.17396081303790514
00:20,0.1647134224501007
00:20,0.1463101995971434
00:20,0.12030763596410914
00:20,0.09137520600622596
00:20,0.06482329243728255
00:20,0.04303241164621864
00:20,0.02710126350485259
00:20,0.016114264786669108
00:20,0.004944149423182567
00:20,-0.009522065555759018
00:20,-0.02536165537447354
00:20,-0.039736312030763596
00:20,-0.05218824391137154
00:20,-0.06171030946713056
00:20,-0.06473173411463103
00:20,-0.05987914301409998
00:20,-0.051089544039553195
00:20,-0.04568760300311298
00:20,-0.04687786119758286
00:20,-0.05182201062076543
00:20,-0.05603369346273576
00:20,-0.05731550997985717
00:20,-0.05612525178538729
00:20,-0.05337850210584142
00:20,-0.050265519135689433
00:20,-0.04806811939205274
00:20,-0.04715253616553745
00:20,-0.047244094488188976
00:20,-0.048159677714704266
00:20,-0.05044863578099249
00:20,-0.05347006042849295
00:20,-0.055667460172129646
00:20,-0.056583043398644936
00:20,-0.05694927668925105
00:20,-0.05694927668925105
00:20,-0.055209668558872
00:20,-0.050173960813037904
00:20,-0.04330708661417323
00:20,-0.03854605383629372
00:20,-0.03726423731917231
00:20,-0.03763047060977843
00:20,-0.03662332906061161
00:20,-0.0325032045412928
00:20,-0.027375938472807178
00:20,-0.026460355246291888
00:20,-0.032411646218641274
00:20,-0.04046877861197583
00:20,-0.0432155282915217
00:20,-0.03946163706280901
00:20,-0.03460904596227797
00:20,-0.0325032045412928
00:20,-0.03259476286394433
00:20,-0.03305255447720198
00:20,-0.03259476286394433
00:20,-0.030305804797656107
00:20,-0.025911005310382713
00:20,-0.020966855887200146
00:20,-0.0176707562717451
00:20,-0.016663614722578282
00:20,-0.016388939754623695
00:20,-0.015381798205456876
00:20,-0.014740889946896173
00:20,-0.01886101446621498
00:20,-0.03158762131477751
00:20,-0.048159677714704266
00:20,-0.05878044314228163
00:20,-0.05987914301409998
00:20,-0.05429408533235671
00:20,-0.04486357809924922
00:20,-0.03543307086614173
00:20,-0.027559055118110236
00:20,-0.02069218091924556
00:20,-0.01693828969053287
00:20,-0.018036989562351217
00:20,-0.02234023072697308
00:20,-0.028291521699322468
00:20,-0.03351034609045962
00:20,-0.03570774583409632
00:20,-0.03552462918879326
00:20,-0.03488372093023256
00:20,-0.03479216260758103
00:20,-0.0353415125434902
00:20,-0.036165537447353964
00:20,-0.036989562351217725
00:20,-0.03735579564182384
00:20,-0.03763047060977843
00:20,-0.03937007874015748
00:20,-0.04284929500091558
00:20,-0.044497344808643105
00:20,-0.041659036806445705
00:20,-0.036989562351217725
00:20,-0.03479216260758103
00:20,-0.035249954220838674
00:20,-0.03671488738326314
00:20,-0.03763047060977843
00:20,-0.037813587255081486
00:20,-0.037905145577733015
00:20,-0.03863761215894525
00:20,-0.04056033693462736
00:20,-0.04312396996887017
00:20,-0.04522981138985534
00:20,-0.046511627906976744
00:20,-0.04706097784288592
00:20,-0.04715253616553745
00:20,-0.0460538362937191
00:20,-0.04202527009705182
00:20,-0.03451748763962644
00:20,-0.025819446987731184
00:20,-0.018036989562351217
00:20,-0.011719465299395715
00:20,-0.006775315876213148
00:20,-0.0011902581944698773
00:20,0.0059512909723493865
00:20,0.011994140267350302
00:20,0.01400842336568394
00:20,0.014557773301593115
00:20,0.01867789782091192
00:20,0.0261856802783373
00:20,0.028566196667277055
00:20,0.018494781175608863
00:20,0.00027467496795458707
00:20,-0.015290239882805347
00:20,-0.023072697308185314
00:20,-0.024812305438564365
00:20,-0.023713605566746017
00:20,-0.0205090642739425
00:20,-0.015564914850759934
00:20,-0.01217725691265336
00:20,-0.01876945614356345
00:20,-0.040743453579930415
00:20,-0.06464017579197949
00:20,-0.06949276689251054
00:20,-0.05035707745834096
00:20,-0.00943050723310749
00:20,0.05337850210584142
00:20,0.13019593481047428
00:20,0.2053653177073796
00:20,0.26295550265519135
00:20,0.2851126167368614
00:20,0.25114447903314413
00:20,0.1549166819263871
00:20,0.02426295550265519
00:20,-0.09750961362387842
00:20,-0.18687053653177074
00:20,-0.23640358908624795
00:20,-0.2418970884453397
00:20,-0.2169932246841238
00:20,-0.18568027833730086
00:20,-0.1511627906976744
00:20,-0.11060245376304706
00:20,-0.07828236586705732
00:20,-0.06418238417872185
00:20,-0.05987914301409998
00:20,-0.05401941036440212
00:20,-0.04330708661417323
00:20,-0.03085515473356528
00:20,-0.021241530855154733
00:20,-0.016205823109320637
00:20,-0.014283098333638528
00:20,-0.013367515107123237
00:20,-0.012909723493865592
00:20,-0.012909723493865592
00:20,-0.013275956784471708
00:20,-0.012543490203259476
00:20,-0.00933894891045596
00:20,-0.003204541292803516
00:20,0.004394799487273393
00:20,0.01126167368613807
00:20,0.015748031496062992
00:20,0.018036989562351217
00:20,0.019410364402124153
00:20,0.020325947628639443
00:20,0.020325947628639443
00:20,0.019868156015381798
00:20,0.019135689434169566
00:20,0.01886101446621498
00:20,0.018494781175608863
00:20,0.017212964658487456
00:20,0.014557773301593115
00:20,0.013275956784471708
00:20,0.018036989562351217
00:20,0.03094671305621681
00:20,0.047335652810840505
00:20,0.05887200146493316
00:20,0.062442776048342793
00:20,0.061344076176524445
00:20,0.059604468046145394
00:20,0.05978758469144845
00:20,0.06482329243728255
00:20,0.07599340780076909
00:20,0.09045962277971067
00:20,0.10327778795092474
00:20,0.11170115363486541
00:20,0.11627906976744186
00:20,0.12131477751327596
00:20,0.1315693096502472
00:20,0.1453946163706281
00:20,0.1558322651529024
00:20,0.15949459805896357
00:20,0.15912836476835746
00:20,0.15757187328328146
00:20,0.15574070683025087
00:20,0.15436733199047795
00:20,0.1532686321186596
00:20,0.14978941585790148
00:20,0.13926020875297565
00:20,0.12030763596410914
00:20,0.09879143014099982
00:20,0.08395898187145212
00:20,0.07846548251236038
00:20,0.07626808276872368
00:20,0.06775315876213148
00:20,0.047427211133492034
00:20,0.017579197949093572
00:20,-0.014649331624244644
00:20,-0.03946163706280901
00:20,-0.04806811939205274
00:20,-0.04284929500091558
00:20,-0.033327229445156564
00:20,-0.026918146859549533
00:20,-0.029298663248489287
00:20,-0.04019410364402124
00:20,-0.05218824391137154
00:20,-0.060336934627357626
00:20,-0.06418238417872185
00:20,-0.06363303424281268
00:20,-0.05832265152902399
00:20,-0.0495330525544772
00:20,-0.04010254532136971
00:20,-0.033235671122505035
00:20,-0.030672038088262223
00:20,-0.031221388024171397
00:20,-0.03296099615455045
00:20,-0.03488372093023256
00:20,-0.037081120673869254
00:20,-0.04001098699871818
00:20,-0.043673319904779344
00:20,-0.04870902765061344
00:20,-0.05630836843069035
00:20,-0.06381615088811574
00:20,-0.06299212598425197
00:20,-0.047335652810840505
00:20,-0.023164255630836843
00:20,-0.004486357809924922
00:20,0.0020142830983336385
00:20,-0.0019227247756821095
00:20,-0.014557773301593115
00:20,-0.031312946346822926
00:20,-0.04394799487273393
00:20,-0.04568760300311298
00:20,-0.03845449551364219
00:20,-0.031496062992125984
00:20,-0.03012268815235305
00:20,-0.030488921442959165
00:20,-0.028474638344625526
00:20,-0.024720747115912836
00:20,-0.02060062259659403
00:20,-0.018494781175608863
00:20,-0.01886101446621498
00:20,-0.019227247756821095
00:20,-0.018128547885002746
00:20,-0.016297381431972166
00:20,-0.015473356528108405
00:20,-0.01602270646401758
00:20,-0.016297381431972166
00:20,-0.015381798205456876
00:20,-0.01400842336568394
00:20,-0.013642190075077824
00:20,-0.014374656656290057
00:20,-0.015381798205456876
00:20,-0.015564914850759934
00:20,-0.013825306720380882
00:20,-0.009613623878410547
00:20,-0.005218824391137154
00:20,-0.006317524262955503
00:20,-0.016663614722578282
00:20,-0.0325032045412928
00:20,-0.045321369712506866
00:20,-0.04971616919978026
00:20,-0.044497344808643105
00:20,-0.029298663248489287
00:20,-0.009613623878410547
00:20,0.004486357809924922
00:20,0.009247390587804431
00:20,0.008789598974546786
00:20,0.007141549166819264
00:20,0.004486357809924922
00:20,-0.0019227247756821095
00:20,-0.013459073429774766
00:20,-0.02627723860098883
00:20,-0.034334370994323384
00:20,-0.03589086247939938
00:20,-0.03396813770371727
00:20,-0.031404504669474455
00:20,-0.027833730086064823
00:20,-0.021241530855154733
00:20,-0.012818165171214063
00:20,-0.005218824391137154
00:20,-0.0006409082585607032
00:20,-0.0007324665812122322
00:20,-0.005035707745834096
00:20,-0.010986998718183483
00:20,-0.01785387291704816
00:20,-0.025819446987731184
00:20,-0.033235671122505035
00:20,-0.0375389122871269
00:20,-0.037905145577733015
00:20,-0.0347006042849295
00:20,-0.028291521699322468
00:20,-0.01886101446621498
00:20,-0.008148690715986083
00:20,0.0003662332906061161
00:20,0.004303241164621864
00:20,0.004394799487273393
00:20,0.0027467496795458707
00:20,0.0011902581944698773
00:20,0.0
00:20,-0.0010986998718183483
00:20,-0.0022889580662882256
00:20,-0.0027467496795458707
00:20,-0.0018311664530305805
00:20,-9.155832265152902e-05
00:20,0.00027467496795458707
00:20,-0.0019227247756821095
00:20,-0.004486357809924922
00:20,-0.0026551913568943417
00:20,0.006409082585607032
00:20,0.023255813953488372
00:20,0.042757736678264054
00:20,0.05594213514008423
00:20,0.05603369346273576
00:20,0.04229994506500641
00:20,0.020417505951290972
00:20,-0.0004577916132576451
00:20,-0.014557773301593115
00:20,-0.02069218091924556
00:20,-0.020142830983336385
00:20,-0.013825306720380882
00:20,-0.005127266068485625
00:20,0.0008240249038637612
00:20,-0.0011902581944698773
00:20,-0.018311664530305805
00:20,-0.04797656106940121
00:20,-0.06757004211682842
00:20,-0.058505768174327046
00:20,-0.024903863761215894
00:20,0.02810840505401941
00:20,0.10336934627357627
00:20,0.19062442776048344
00:20,0.2657022523347372
00:20,0.30845998901300126
00:20,0.30388207288042485
00:20,0.23869254715253616
00:20,0.12131477751327596
00:20,-0.01025453213697125
00:20,-0.12223036073979125
00:20,-0.20161142647866692
00:20,-0.2387841054751877
00:20,-0.2289873649514741
00:20,-0.18998351950192272
00:20,-0.14869071598608313
00:20,-0.11499725325032045
00:20,-0.08698040651895257
00:20,-0.06619666727705549
00:20,-0.05502655191356894
00:20,-0.04971616919978026
00:20,-0.04028566196667277
00:20,-0.02142464750045779
00:20,0.00018311664530305805
00:20,0.011353232008789599
00:20,0.006683757553561619
00:20,-0.005310382713788683
00:20,-0.012360373557956418
00:20,-0.010895440395531954
00:20,-0.005401941036440212
00:20,0.0
00:20,0.003204541292803516
00:20,0.005035707745834096
00:20,0.007690899102728438
00:20,0.012360373557956418
00:20,0.018952572788866508
00:20,0.025819446987731184
00:20,0.02993957150704999
00:20,0.03076359641091375
00:20,0.030488921442959165
00:20,0.032228529573338216
00:20,0.03735579564182384
00:20,0.04376487822743087
00:20,0.04761032777879509
00:20,0.04770188610144662
00:20,0.0460538362937191
00:20,0.04394799487273393
00:20,0.04120124519318806
00:20,0.03854605383629372
00:20,0.03955319538546054
00:20,0.04944149423182567
00:20,0.07013367515107123
00:20,0.09522065555759018
00:20,0.11527192821827505
00:20,0.12635048525911005
00:20,0.13037905145577733
00:20,0.1302874931331258
00:20,0.1279985350668376
00:20,0.12534334370994324
00:20,0.12516022706464017
00:20,0.1315693096502472
00:20,0.1463101995971434
00:20,0.16709393883904047
00:20,0.1876945614356345
00:20,0.20106207654275773
00:20,0.20481596777147043
00:20,0.2030763596410914
00:20,0.20060428492950008
00:20,0.19859000183116646
00:20,0.19410364402124153
00:20,0.18412378685222486
00:20,0.1712140633583593
00:20,0.16269913935176708
00:20,0.1615088811572972
00:20,0.16288225599707012
00:20,0.15656473173411464
00:20,0.1340413843618385
00:20,0.09924922175425746
00:20,0.06674601721296466
00:20,0.04660318622962827
00:20,0.037813587255081486
00:20,0.03497527925288409
00:20,0.03369346273576268
00:20,0.03085515473356528
00:20,0.02435451382530672
00:20,0.01400842336568394
00:20,0.004486357809924922
00:20,0.0004577916132576451
00:20,0.0011902581944698773
00:20,0.0027467496795458707
00:20,0.003204541292803516
00:20,0.003296099615455045
00:20,0.00375389122871269
00:20,0.005218824391137154
00:20,0.007233107489470793
00:20,0.008881157297198315
00:20,0.009888298846365134
00:20,0.009613623878410547
00:20,0.0062259659403039735
00:20,-0.0021973997436366965
00:20,-0.014191540010986999
00:20,-0.02435451382530672
00:20,-0.029207104925837758
00:20,-0.03003112982970152
00:20,-0.029756454861746932
00:20,-0.02984801318439846
00:20,-0.02911554660318623
00:20,-0.02527009705182201
00:20,-0.017487639626442043
00:20,-0.008789598974546786
00:20,-0.0031129829701519868
00:20,-0.0007324665812122322
00:20,0.0010986998718183483
00:20,0.003845449551364219
00:20,0.006317524262955503
00:20,0.007416224134773851
00:20,0.007324665812122322
00:20,0.0059512909723493865
00:20,0.0031129829701519868
00:20,-0.0005493499359091741
00:20,-0.004028566196667277
00:20,-0.006866874198864677
00:20,-0.00933894891045596
00:20,-0.011444790331441128
00:20,-0.012909723493865592
00:20,-0.013642190075077824
00:20,-0.013825306720380882
00:20,-0.013916865043032411
00:20,-0.014191540010986999
00:20,-0.01400842336568394
00:20,-0.012360373557956418
00:20,-0.009522065555759018
00:20,-0.007782457425379967
00:20,-0.008514924006592199
00:20,-0.010437648782274309
00:20,-0.01309284013916865
00:20,-0.01693828969053287
00:20,-0.021333089177806262
00:20,-0.024903863761215894
00:20,-0.027742171763413294
00:20,-0.03012268815235305
00:20,-0.03167917963742904
00:20,-0.03085515473356528
00:20,-0.023896722212049075
00:20,-0.008514924006592199
00:20,0.009705182201062076
00:20,0.020875297564548617
00:20,0.021241530855154733
00:20,0.016114264786669108
00:20,0.011536348654092657
00:20,0.007416224134773851
00:20,0.0
00:20,-0.01117011536348654
00:20,-0.02234023072697308
00:20,-0.02993957150704999
00:20,-0.03351034609045962
00:20,-0.034334370994323384
00:20,-0.03396813770371727
00:20,-0.03268632118659586
00:20,-0.02993957150704999
00:20,-0.0261856802783373
00:20,-0.02353048892144296
00:20,-0.022798022340230727
00:20,-0.023255813953488372
00:20,-0.024171397180003662
00:20,-0.025086980406518952
00:20,-0.0261856802783373
00:20,-0.02710126350485259
00:20,-0.02636879692364036
00:20,-0.02234023072697308
00:20,-0.015656473173411463
00:20,-0.012543490203259476
00:20,-0.017579197949093572
00:20,-0.02636879692364036
00:20,-0.033144112799853506
00:20,-0.03872917048159678
00:20,-0.04413111151803699
00:20,-0.04660318622962827
00:20,-0.04376487822743087
00:20,-0.036989562351217725
00:20,-0.030214246475004577
00:20,-0.025911005310382713
00:20,-0.02444607214795825
00:20,-0.024171397180003662
00:20,-0.021882439113715436
00:20,-0.015381798205456876
00:20,-0.007141549166819264
00:20,-0.0022889580662882256
00:20,-0.0018311664530305805
00:20,-0.0023805163889397546
00:20,-0.0007324665812122322
00:20,0.003845449551364219
00:20,0.009979857169016663
00:20,0.015381798205456876
00:20,0.0176707562717451
00:20,0.013459073429774766
00:20,0.0026551913568943417
00:20,-0.010895440395531954
00:20,-0.026002563633034242
00:20,-0.04339864493682476
00:20,-0.05997070133675151
00:20,-0.07059146676432888
00:20,-0.07379600805713239
00:20,-0.07141549166819264
00:20,-0.06564731734114632
00:20,-0.06390770921076726
00:20,-0.07700054934993592
00:20,-0.097784288591833
00:20,-0.10391869620948545
00:20,-0.08533235671122505
00:20,-0.042574620032960996
00:20,0.02627723860098883
00:20,0.11536348654092657
00:20,0.20078740157480315
00:20,0.2551730452298114
00:20,0.26643471891594944
00:20,0.22944515656473174
00:20,0.1398095586888848
00:20,0.013275956784471708
00:20,-0.1176524446072148
00:20,-0.22953671488738325
00:20,-0.30195934810474273
00:20,-0.3157846548251236
00:20,-0.2841054751876946
00:20,-0.244552279802234
00:20,-0.2173594579747299
00:20,-0.20106207654275773
00:20,-0.18604651162790697
00:20,-0.16178355612525178
00:20,-0.1302874931331258
00:20,-0.10529207104925838
00:20,-0.09403039736312031
00:20,-0.09238234755539279
00:20,-0.09403039736312031
00:20,-0.09567844717084784
00:20,-0.09677714704266618
00:20,-0.0968687053653177
00:20,-0.09549533052554478
00:20,-0.09320637245925655
00:20,-0.09192455594213514
00:20,-0.09457974729902949
00:20,-0.10162973814319722
00:20,-0.10648232924372826
00:20,-0.10263687969236404
00:20,-0.09448818897637795
00:20,-0.08972715619849844
00:20,-0.08917780626258927
00:20,-0.08963559787584692
00:20,-0.08872001464933163
00:20,-0.08661417322834646
00:20,-0.0864310565830434
00:20,-0.08981871452114998
00:20,-0.09238234755539279
00:20,-0.0892693645852408
00:20,-0.08286028199963377
00:20,-0.07764145760849661
00:20,-0.07471159128364768
00:20,-0.07324665812122322
00:20,-0.07196484160410181
00:20,-0.06866874198864677
00:20,-0.06317524262955503
00:20,-0.05694927668925105
00:20,-0.052005127266068485
00:20,-0.0495330525544772
00:20,-0.04870902765061344
00:20,-0.046420069584325215
00:20,-0.040651895257278886
00:20,-0.03158762131477751
00:20,-0.02142464750045779
00:20,-0.012268815235304889
00:20,-0.00558505768174327
00:20,-0.0012818165171214063
00:20,0.0027467496795458707
00:20,0.009155832265152902
00:20,0.017121406335835927
00:20,0.024079838857352133
00:20,0.03003112982970152
00:20,0.03488372093023256
00:20,0.03763047060977843
00:20,0.038912287126899835
00:20,0.03964475370811207
00:20,0.03827137886833913
00:20,0.03076359641091375
00:20,0.014649331624244644
00:20,-0.007324665812122322
00:20,-0.029207104925837758
00:20,-0.046511627906976744
00:20,-0.06006225965940304
00:20,-0.0731550997985717
00:20,-0.08652261490569493
00:20,-0.099340780076909
00:20,-0.11170115363486541
00:20,-0.12232191906244277
00:20,-0.12928035158395898
00:20,-0.13303424281267168
00:20,-0.1353232008789599
00:20,-0.13761215894524811
00:20,-0.14054202527009704
00:20,-0.1442043581761582
00:20,-0.14740889946896174
00:20,-0.14933162424464383
00:20,-0.14914850759934078
00:20,-0.14594396630653728
00:20,-0.14045046694744553
00:20,-0.1355978758469145
00:20,-0.13303424281267168
00:20,-0.13239333455411098
00:20,-0.1324848928767625
00:20,-0.13294268449002014
00:20,-0.13413294268449003
00:20,-0.1366050173960813
00:20,-0.13999267533418788
00:20,-0.14228163340047612
00:20,-0.1398095586888848
00:20,-0.12873100164804982
00:20,-0.10950375389122871
00:20,-0.08972715619849844
00:20,-0.07773301593114815
00:20,-0.07471159128364768
00:20,-0.07745834096319355
00:20,-0.08350119025819447
00:20,-0.09073429774766527
00:20,-0.0958615638161509
00:20,-0.09677714704266618
00:20,-0.09348104742721114
00:20,-0.08716352316425563
00:20,-0.08038820728804248
00:20,-0.07526094121955686
00:20,-0.07187328328145029
00:20,-0.06848562534334371
00:20,-0.062351217725691264
00:20,-0.050265519135689433
00:20,-0.03305255447720198
00:20,-0.01876945614356345
00:20,-0.015290239882805347
00:20,-0.020875297564548617
00:20,-0.02893242995788317
00:20,-0.03909540377220289
00:20,-0.05347006042849295
00:20,-0.06692913385826772
00:20,-0.07049990844167735
00:20,-0.06271745101629739
00:20,-0.05163889397546237
00:20,-0.043490203259476286
00:20,-0.03653177073796008
00:20,-0.026460355246291888
00:20,-0.012543490203259476
00:20,0.0009155832265152902
00:20,0.008148690715986083
00:20,0.006409082585607032
00:20,-0.0015564914850759934
00:20,-0.011353232008789599
00:20,-0.019044131111518037
00:20,-0.022248672404321553
00:20,-0.02160776414576085
00:20,-0.020417505951290972
00:20,-0.01977659769273027
00:20,-0.017212964658487456
00:20,-0.01117011536348654
00:20,-0.003937007874015748
00:20,0.003570774583409632
00:20,0.011444790331441128
00:20,0.017579197949093572
00:20,0.019868156015381798
00:20,0.018220106207654276
00:20,0.015656473173411463
00:20,0.014832448269547702
00:20,0.016480498077275224
00:20,0.019318806079472624
00:20,0.021149972532503204
00:20,0.020051272660684856
00:20,0.01583958981871452
00:20,0.010437648782274309
00:20,0.006317524262955503
00:20,0.004303241164621864
00:20,0.004852591100531038
00:20,0.007233107489470793
00:20,0.010071415491668192
00:20,0.012909723493865592
00:20,0.016205823109320637
00:20,0.019501922724775682
00:20,0.022889580662882256
00:20,0.026826588536898004
00:20,0.03277787950924739
00:20,0.04019410364402124
00:20,0.046328511261673685
00:20,0.04962461087712873
00:20,0.049990844167734846
00:20,0.048342794360007324
00:20,0.047244094488188976
00:20,0.04898370261856803
00:20,0.05328694378318989
00:20,0.05887200146493316
00:20,0.06729536714887384
00:20,0.08176158212781542
00:20,0.09915766343160594
00:20,0.11170115363486541
00:20,0.11856802783373009
00:20,0.12516022706464017
00:20,0.1324848928767625
00:20,0.13651345907342977
00:20,0.1344076176524446
00:20,0.12882255997070133
00:20,0.12479399377403406
00:20,0.1233290606116096
00:20,0.12104010254532137
00:20,0.11472257828236587
00:20,0.1047427211133492
00:20,0.09467130562168101
00:20,0.0879875480681194
00:20,0.08514924006592199
00:20,0.08414209851675518
00:20,0.08258560703167918
00:20,0.08139534883720931
00:20,0.08304339864493683
00:20,0.08661417322834646
00:20,0.09320637245925655
00:20,0.11179271195751694
00:20,0.14942318256729537
00:20,0.20609778428859182
00:20,0.2782457425379967
00:20,0.35249954220838675
00:20,0.40972349386559237
00:20,0.4407617652444607
00:20,0.43032411646218643
00:20,0.34947811756088626
00:20,0.20765427577366782
00:20,0.05813953488372093
00:20,-0.05932979307819081
00:20,-0.1252517853872917
00:20,-0.12671671854971617
00:20,-0.08203625709577
00:20,-0.03836293719099066
00:20,-0.022981138985533785
00:20,-0.01886101446621498
00:20,0.0003662332906061161
00:20,0.03341878776780809
00:20,0.06180186778978209
00:20,0.07837392418970884
00:20,0.08917780626258927
00:20,0.09677714704266618
00:20,0.09787584691448453
00:20,0.09311481413660502
00:20,0.08752975645486175
00:20,0.083592748580846
00:20,0.08139534883720931
00:20,0.08066288225599708
00:20,0.0807544405786486
00:20,0.08167002380516389
00:20,0.08267716535433071
00:20,0.08258560703167918
00:20,0.08066288225599708
00:20,0.07745834096319355
00:20,0.07397912470243545
00:20,0.07132393334554112
00:20,0.06995055850576817
00:20,0.0696758835378136
00:20,0.06995055850576817
00:20,0.07049990844167735
00:20,0.0706830250869804
00:20,0.06921809192455594
00:20,0.06509796740523714
00:20,0.05878044314228163
00:20,0.05264603552462919
00:20,0.0488921442959165
00:20,0.04806811939205274
00:20,0.049258377586522614
00:20,0.05127266068485625
00:20,0.05411096868705365
00:20,0.05731550997985717
00:20,0.061252517853872916
00:20,0.06802783373008607
00:20,0.0785570408350119
00:20,0.08936092290789233
00:20,0.09741805530122688
00:20,0.1050173960813038
00:20,0.11655374473539645
00:20,0.13101995971433802
00:20,0.1435634499175975
00:20,0.15226149056949276
00:20,0.15748031496062992
00:20,0.15921992309100896
00:20,0.15949459805896357
00:20,0.16224134773850943
00:20,0.16764328877494963
00:20,0.17194652993957152
00:20,0.17277055484343526
00:20,0.17176341329426845
00:20,0.16919978026002563
00:20,0.16123420618934262
00:20,0.14466214978941586
00:20,0.12479399377403406
00:20,0.11032777879509248
00:20,0.10007324665812123
00:20,0.08514924006592199
00:20,0.0615271928218275
00:20,0.0353415125434902
00:20,0.016297381431972166
00:20,0.007049990844167735
00:20,0.0018311664530305805
00:20,-0.004028566196667277
00:20,-0.010620765427577367
00:20,-0.01785387291704816
00:20,-0.028749313312580113
00:20,-0.04376487822743087
00:20,-0.0580479765610694
00:20,-0.0665629005676616
00:20,-0.06912653360190442
00:20,-0.06811939205273759
00:20,-0.06583043398644937
00:20,-0.06390770921076726
00:20,-0.06290056766160045
00:20,-0.062442776048342793
00:20,-0.06335835927485808
00:20,-0.0674784837941769
00:20,-0.0731550997985717
00:20,-0.07764145760849661
00:20,-0.07965574070683025
00:20,-0.08002197399743637
00:20,-0.07974729902948179
00:20,-0.07983885735213331
00:20,-0.08148690715986083
00:20,-0.08597326496978576
00:20,-0.09229078923274125
