Timestamp,ECG Voltage (mV)
17:09,0.590001831166453
17:09,0.795092473905878
17:09,1.0111701153634864
17:09,1.2267899652078373
17:09,1.4225416590368065
17:09,1.5970518220106207
17:09,1.7547152536165538
17:09,1.8905878044314228
17:09,2.0041201245193188
17:09,2.1008057132393336
17:09,2.179088079106391
17:09,2.2373191723127634
17:09,2.2829152169932247
17:09,2.3243911371543673
17:09,2.3649514740889948
17:09,2.4071598608313494
17:09,2.4528474638344626
17:09,2.4985350668375754
17:09,2.5370811206738693
17:09,2.564548617469328
17:09,2.582585607031679
17:09,2.5954037722028933
17:09,2.605932979307819
17:09,2.6141732283464565
17:09,2.6196667277055483
17:09,2.622321919062443
17:09,2.6203076359641093
17:09,2.6100531038271377
17:09,2.5893609229078924
17:09,2.562442776048343
17:09,2.5384544955136423
17:09,2.5220655557590184
17:09,2.5065006409082584
17:09,2.4784837941768907
17:09,2.433162424464384
17:09,2.376213147775133
17:09,2.317890496246109
17:09,2.2730269181468596
17:09,2.254257462003296
17:09,2.2667093938839042
17:09,2.305804797656107
17:09,2.3416956601355063
17:09,2.3323567112250503
17:09,2.260758102911555
17:09,2.130470609778429
17:09,1.9548617469327962
17:09,1.766343160593298
17:09,1.597967405237136
17:09,1.4701519868156014
17:09,1.4039553195385461
17:09,1.403772202893243
17:09,1.4332539827870354
17:09,1.449642922541659
17:09,1.4412195568577184
17:09,1.416407251419154
17:09,1.3872917048159679
17:09,1.3600988829884637
17:09,1.326405420252701
17:09,1.2780626258926937
17:09,1.2187328328145028
17:09,1.1577549899285846
17:09,1.1032777879509248
17:09,1.0593297930781909
17:09,1.0228895806628822
17:09,0.9800402856619667
17:09,0.9118293352865775
17:09,0.8251236037355796
17:09,0.7548068119392053
17:09,0.719099066105109
17:09,0.6998718183482878
17:09,0.6755173045229811
17:09,0.6438381248855521
17:09,0.610419337117744
17:09,0.5748947079289507
17:09,0.5338765793810657
17:09,0.4851675517304523
17:09,0.42821827504120125
17:09,0.36980406518952574
17:09,0.3252151620582311
17:09,0.3024171397180004
17:09,0.2960080571323933
17:09,0.2939022157114082
17:09,0.2841970335103461
17:09,0.2593847280717817
17:09,0.22102179088079107
17:09,0.17954587071964842
17:09,0.14777513275956786
17:09,0.13019593481047428
17:09,0.12195568577183666
17:09,0.11673686138069951
17:09,0.11298297015198681
17:09,0.11160959531221389
17:09,0.11408167002380516
17:09,0.12140633583592748
17:09,0.13138619300494414
17:09,0.1394433253982787
17:09,0.1438381248855521
17:09,0.14530305804797655
17:09,0.14493682475737044
17:09,0.1438381248855521
17:09,0.14392968320820362
17:09,0.14566929133858267
17:09,0.14685954953305255
17:09,0.14566929133858267
17:09,0.14310565830433986
17:09,0.14154916681926388
17:09,0.14118293352865777
17:09,0.13898553378502107
17:09,0.13138619300494414
17:09,0.11838491118842703
17:09,0.10391869620948545
17:09,0.0914667643288775
17:09,0.08249404870902766
17:09,0.07736678264054203
17:09,0.07462003296099616
17:09,0.07352133308917781
17:09,0.07681743270463286
17:09,0.08807910639077092
17:09,0.10465116279069768
17:09,0.1182933528657755
17:09,0.124610877128731
17:09,0.12625892693645852
17:09,0.1274491851309284
17:09,0.12946346822926205
17:09,0.13175242629555026
17:09,0.13413294268449003
17:09,0.1353232008789599
17:09,0.13422450100714156
17:09,0.13202710126350486
17:09,0.1296465848745651
17:09,0.12607581029115547
17:09,0.11920893609229079
17:09,0.10968687053653177
17:09,0.10227064640175793
17:09,0.10053103827137887
17:09,0.10300311298297016
17:09,0.10556674601721297
17:09,0.10520051272660685
17:09,0.10172129646584875
17:09,0.0971433803332723
17:09,0.0914667643288775
17:09,0.07874015748031496
17:09,0.04944149423182567
17:09,-0.0019227247756821095
17:09,-0.07278886650796558
17:09,-0.15281084050540195
17:09,-0.23393151437465665
17:09,-0.31184764695110784
17:09,-0.37969236403589085
17:09,-0.4387474821461271
17:09,-0.5040285661966672
17:09,-0.5869804065189526
17:09,-0.6797289873649515
17:09,-0.7678080937557223
17:09,-0.8493865592382348
17:09,-0.9267533418787768
17:09,-0.9962461087712873
17:09,-1.0590551181102361
17:09,-1.1216810108038822
17:09,-1.1892510529207105
17:09,-1.266892510529207
17:09,-1.3578099249221753
17:09,-1.4526643471891596
17:09,-1.5354330708661417
17:09,-1.5949459805896355
17:09,-1.6294634682292621
17:09,-1.6502472074711592
17:09,-1.6710309467130562
17:09,-1.694378318989196
17:09,-1.7165354330708662
17:09,-1.7375022889580662
17:09,-1.7586522614905695
17:09,-1.7780626258926937
17:09,-1.7907892327412562
17:09,-1.7943600073246657
17:09,-1.7910639077092108
17:09,-1.7816334004761032
17:09,-1.762039919428676
17:09,-1.7268815235304888
17:09,-1.6756088628456327
17:09,-1.6193920527375938
17:09,-1.574070683025087
17:09,-1.5390038454495514
17:09,-1.4990844167734847
17:09,-1.4469877311847648
17:09,-1.3867423548800586
17:09,-1.3216443874748214
17:09,-1.2579197949093572
17:09,-1.206830250869804
17:09,-1.1711225050357077
17:09,-1.138985533785021
17:09,-1.0975096136238784
17:09,-1.0467863028749314
17:09,-0.9976194836110602
17:09,-0.9568760300311299
17:09,-0.919337117744003
17:09,-0.8759384728071782
17:09,-0.8244826954770189
17:09,-0.7658853689800403
17:09,-0.7001464933162425
17:09,-0.6384361838491119
17:09,-0.6002563633034242
17:09,-0.5875297564548617
17:09,-0.5824024903863761
17:09,-0.5689434169566013
17:09,-0.5469694195202344
17:09,-0.5274674967954587
17:09,-0.5165720563999268
17:09,-0.5090642739425014
17:09,-0.49835195019227246
17:09,-0.4859915766343161
17:09,-0.4774766526277239
17:09,-0.47353964475370813
17:09,-0.46804614539461636
17:09,-0.45513642190075076
17:09,-0.43481047427211134
17:09,-0.41182933528657756
17:09,-0.397363120307636
17:09,-0.4000183116645303
17:09,-0.40999816883354695
17:09,-0.41540010986998716
17:09,-0.4142098516755173
17:09,-0.39891961179271196
17:09,-0.3619300494414942
17:09,-0.3129463468229262
17:09,-0.2750412012451932
17:09,-0.2681743270463285
17:09,-0.3053470060428493
17:09,-0.39672221204907526
17:09,-0.5246291887932613
17:09,-0.643471891594946
17:09,-0.7205639992675335
17:09,-0.7405237136055668
17:09,-0.7039919428676067
17:09,-0.6377037172678997
17:09,-0.5721479582494049
17:09,-0.5181285478850027
17:09,-0.47015198681560155
17:09,-0.42180919245559423
17:09,-0.3750228895806629
17:09,-0.3337300860648233
17:09,-0.2991210401025453
17:09,-0.27137886833913205
17:09,-0.2527925288408716
17:09,-0.24491851309284013
17:09,-0.24519318806079474
17:09,-0.24913019593481048
17:09,-0.2529756454861747
17:09,-0.2527925288408716
17:09,-0.24317890496246108
17:09,-0.21909906610510896
17:09,-0.18549716169199781
17:09,-0.15693096502472076
17:09,-0.14283098333638528
17:09,-0.13999267533418788
17:09,-0.14118293352865777
17:09,-0.14273942501373374
17:09,-0.14328877494964293
17:09,-0.14026735030214246
17:09,-0.1315693096502472
17:09,-0.12003296099615456
17:09,-0.11206738692547152
17:09,-0.10968687053653177
17:09,-0.10721479582494049
17:09,-0.09851675517304523
17:09,-0.08377586522614906
17:09,-0.069401208569859
17:09,-0.059604468046145394
17:09,-0.05347006042849295
17:09,-0.04843435268265885
17:09,-0.04239150338765794
17:09,-0.03378502105841421
17:09,-0.02142464750045779
17:09,-0.003296099615455045
17:09,0.021790880791063907
17:09,0.05145577733015931
17:09,0.0772752243178905
17:09,0.09164988097418056
17:09,0.09732649697857536
17:09,0.10437648782274309
17:09,0.12058231093206373
17:09,0.14685954953305255
17:09,0.17469327961911738
17:09,0.19291338582677164
17:09,0.1981322102179088
17:09,0.1949276689251053
17:09,0.18668741988646767
17:09,0.17414392968320822
17:09,0.15967771470426662
17:09,0.14557773301593116
17:09,0.1300128181651712
17:09,0.10813037905145578
17:09,0.08130379051455777
17:09,0.0580479765610694
17:09,0.04495513642190075
17:09,0.04056033693462736
17:09,0.03955319538546054
17:09,0.03918696209485442
17:09,0.039003845449551364
17:09,0.03872917048159678
17:09,0.03717267899652078
17:09,0.034059696026368796
17:09,0.03103827137886834
17:09,0.030580479765610694
17:09,0.03579930415674785
17:09,0.048159677714704266
17:09,0.06409082585607032
17:09,0.07672587438198132
17:09,0.08414209851675518
17:09,0.08872001464933163
17:09,0.09164988097418056
17:09,0.09329793078190808
17:09,0.0943050723310749
17:09,0.09476286394433255
17:09,0.09503753891228713
17:09,0.09567844717084784
17:09,0.0968687053653177
17:09,0.09750961362387842
17:09,0.09393883904046878
17:09,0.08276872367698224
17:09,0.0674784837941769
17:09,0.05639992675334188
17:09,0.05447720197765977
17:09,0.06061160959531221
17:09,0.07022523347372277
17:09,0.0779161325764512
17:09,0.08176158212781542
17:09,0.08459989013001282
17:09,0.08981871452114998
17:09,0.09696026368796924
17:09,0.10336934627357627
17:09,0.10895440395531954
17:09,0.11527192821827505
17:09,0.1211316608679729
17:09,0.12433620216077641
17:09,0.12424464383812489
17:09,0.12158945248123054
17:09,0.11774400292986632
17:09,0.11463101995971434
17:09,0.11344076176524447
17:09,0.1154550448635781
17:09,0.12168101080388208
17:09,0.13010437648782275
17:09,0.13651345907342977
17:09,0.13990111701153635
17:09,0.14283098333638528
17:09,0.14759201611426478
17:09,0.1539095403772203
17:09,0.16013550631752427
17:09,0.16617835561252517
17:09,0.17267899652078375
17:09,0.1776231459439663
17:09,0.1785387291704816
17:09,0.1750595129097235
17:09,0.16965757187328329
17:09,0.16645303058047978
17:09,0.16828419703351036
17:09,0.1728621131660868
17:09,0.17560886284563268
17:09,0.17560886284563268
17:09,0.17670756271745103
17:09,0.1804614539461637
17:09,0.1839406702069218
17:09,0.1851309284013917
17:09,0.18687053653177074
17:09,0.19309650247207472
17:09,0.2034425929316975
17:09,0.21314777513275956
17:09,0.21900750778245742
17:09,0.22230360739791247
17:09,0.22422633217359458
17:09,0.2236769822376854
17:09,0.22028932429957884
17:09,0.2148873832631386
17:09,0.20902765061344075
17:09,0.20435817615821278
17:09,0.20225233473722762
17:09,0.20426661783556124
17:09,0.2110419337117744
17:09,0.22001464933162423
17:09,0.22660684856253432
17:09,0.2289873649514741
17:09,0.22880424830617102
17:09,0.22733931514374656
17:09,0.22477568210950374
17:09,0.22157114081670023
17:09,0.21946529939571507
17:09,0.2189159494598059
17:09,0.2180003662332906
17:09,0.21470426661783557
17:09,0.2084783006775316
17:09,0.2003296099615455
17:09,0.19034975279252883
17:09,0.17835561252517854
17:09,0.16324848928767624
17:09,0.14246475004577916
17:09,0.11774400292986632
17:09,0.09769273026918147
17:09,0.08734663980955869
17:09,0.083592748580846
17:09,0.08221937374107306
17:09,0.07938106573887567
17:09,0.07324665812122322
17:09,0.06958432521516206
17:09,0.07342977476652628
17:09,0.07993041567478484
17:09,0.08789598974546786
17:09,0.11115180369895623
17:09,0.16819263871085882
17:09,0.2590184947811756
17:09,0.3543307086614173
17:09,0.41430140999816883
17:09,0.41594945980589637
17:09,0.35881706647134226
17:09,0.2560886284563267
17:09,0.13166086797289875
17:09,0.01117011536348654
17:09,-0.08881157297198315
17:09,-0.15354330708661418
17:09,-0.16599523896722213
17:09,-0.12277971067570043
17:09,-0.04587071964841604
17:09,0.028291521699322468
17:09,0.07480314960629922
17:09,0.09256546420069585
17:09,0.09457974729902949
17:09,0.09192455594213514
17:09,0.08872001464933163
17:09,0.08487456509796741
17:09,0.08130379051455777
17:09,0.08148690715986083
17:09,0.09100897271561985
17:09,0.11188427028016847
17:09,0.13633034242812672
17:09,0.1527192821827504
17:09,0.15821278154184215
17:09,0.15812122321919062
17:09,0.15720563999267534
17:09,0.15729719831532687
17:09,0.15857901483244827
17:09,0.16196667277055485
17:09,0.16828419703351036
17:09,0.1759750961362388
17:09,0.18183482878593665
17:09,0.18412378685222486
17:09,0.18339132027101263
17:09,0.18128547885002746
17:09,0.17798937923457242
17:09,0.17469327961911738
17:09,0.17716535433070865
17:09,0.1879692364035891
17:09,0.20042116828419704
17:09,0.20811206738692548
17:09,0.21204907526094122
17:09,0.21534517487639626
17:09,0.22001464933162423
17:09,0.22761399011170116
17:09,0.23951657205639992
17:09,0.2559055118110236
17:09,0.2753158762131478
17:09,0.29573338216443873
17:09,0.3143197216626991
17:09,0.32759567844717086
17:09,0.33592748580846
17:09,0.34590734297747666
17:09,0.3621131660867973
17:09,0.38051638893975465
17:09,0.39443325398278706
17:09,0.40212415308551547
17:09,0.40542025270097054
17:09,0.4063358359274858
17:09,0.40679362754074344
17:09,0.4075260941219557
17:09,0.4071598608313496
17:09,0.40111701153634866
17:09,0.3844533968137704
17:09,0.3573521333089178
17:09,0.32439113715436735
17:09,0.2895074162241348
17:09,0.25343343709943233
17:09,0.21845815784654826
17:09,0.18925105292071048
17:09,0.1678264054202527
17:09,0.15134590734297748
17:09,0.13614722578282365
17:09,0.12003296099615456
17:09,0.1012635048525911
17:09,0.07965574070683025
17:09,0.05887200146493316
17:09,0.04248306171030947
17:09,0.029756454861746932
17:09,0.017487639626442043
17:09,0.004028566196667277
17:09,-0.010071415491668192
17:09,-0.023255813953488372
17:09,-0.0347006042849295
17:09,-0.047427211133492034
17:09,-0.06418238417872185
17:09,-0.08405054019410364
17:09,-0.10547518769456143
17:09,-0.1284563266800952
17:09,-0.1507965574070683
17:09,-0.16965757187328329
17:09,-0.1886101446621498
17:09,-0.21552829152169933
17:09,-0.2506866874198865
17:09,-0.28447170847830067
17:09,-0.31019959714338036
17:09,-0.33080021973997437
17:09,-0.3507599340780077
17:09,-0.3683391320271013
17:09,-0.3779527559055118
17:09,-0.3780443142281633
17:09,-0.3756637978392236
17:09,-0.3778611975828603
17:09,-0.3842702801684673
17:09,-0.3901300128181652
17:09,-0.3919611792711957
17:09,-0.3886650796557407
17:09,-0.38088262223036073
17:09,-0.3719099066105109
17:09,-0.36485991576634313
17:09,-0.3577183665995239
17:09,-0.34718915949459805
17:09,-0.33427943600073246
17:09,-0.3227430873466398
17:09,-0.3144112799853507
17:09,-0.30800219739974366
17:09,-0.3025086980406519
17:09,-0.2969236403589086
17:09,-0.29124702435451383
17:09,-0.28785936641640725
17:09,-0.2870353415125435
17:09,-0.2858450833180736
17:09,-0.2830067753158762
17:09,-0.27906976744186046
17:09,-0.27394250137337484
17:09,-0.26799121040102547
17:09,-0.26286394433253985
17:09,-0.25883537813587254
17:09,-0.2516022706464018
17:09,-0.2359457974729903
17:09,-0.21159128364768356
17:09,-0.18549716169199781
17:09,-0.16517121406335836
17:09,-0.15253616553744737
17:09,-0.14585240798388574
17:09,-0.1425563083684307
17:09,-0.14081670023805165
17:09,-0.140358908624794
17:09,-0.14154916681926388
17:09,-0.14310565830433986
17:09,-0.14347189159494597
17:09,-0.14182384178721846
17:09,-0.13843618384911188
17:09,-0.13230177623145944
17:09,-0.11966672770554844
17:09,-0.09796740523713605
17:09,-0.07306354147592016
17:09,-0.05612525178538729
17:09,-0.05090642739425014
17:09,-0.05227980223402307
17:09,-0.05511811023622047
17:09,-0.05694927668925105
17:09,-0.05411096868705365
17:09,-0.04211682841970335
17:09,-0.02160776414576085
17:09,-0.0010986998718183483
17:09,0.010986998718183483
17:09,0.01583958981871452
17:09,0.020417505951290972
17:09,0.029756454861746932
17:09,0.041659036806445705
17:09,0.05063175242629555
17:09,0.053744735396447536
17:09,0.05072331074894708
17:09,0.04056033693462736
17:09,0.023622047244094488
17:09,0.004303241164621864
17:09,-0.011719465299395715
17:09,-0.022798022340230727
17:09,-0.030580479765610694
17:09,-0.0375389122871269
17:09,-0.043490203259476286
17:09,-0.0438564365500824
17:09,-0.0353415125434902
17:09,-0.01602270646401758
17:09,0.01602270646401758
17:09,0.05694927668925105
17:09,0.09815052188243911
17:09,0.1413660501739608
17:09,0.19163156930965025
17:09,0.23832631386193004
17:09,0.26515290239882805
17:09,0.26506134407617654
17:09,0.22541659036806447
17:09,0.13623878410547519
17:09,0.01968503937007874
17:09,-0.08606482329243728
17:09,-0.15409265702252334
17:09,-0.1649880974180553
17:09,-0.12058231093206373
17:09,-0.0545687603003113
17:09,-0.003937007874015748
17:09,0.017304522981138985
17:09,0.01977659769273027
17:09,0.023072697308185314
17:09,0.040835011902581944
17:09,0.07480314960629922
17:09,0.11453946163706281
17:09,0.14484526643471893
17:09,0.15793810657388757
17:09,0.15729719831532687
17:09,0.1505218824391137
17:09,0.14402124153085516
17:09,0.14109137520600623
17:09,0.14081670023805165
17:09,0.14145760849661235
17:09,0.14228163340047612
17:09,0.14246475004577916
17:09,0.14145760849661235
17:09,0.13962644204358177
17:09,0.13742904229994507
17:09,0.13468229262039919
17:09,0.1315693096502472
17:09,0.12781541842153452
17:09,0.11966672770554844
17:09,0.10135506317524264
17:09,0.07251419154001099
17:09,0.04330708661417323
17:09,0.026551913568943417
17:09,0.02627723860098883
17:09,0.03863761215894525
17:09,0.054934993590917414
17:09,0.06665445889031313
17:09,0.07278886650796558
17:09,0.07864859915766344
17:09,0.08734663980955869
17:09,0.09531221388024172
17:09,0.09705182201062076
17:09,0.09412195568577184
17:09,0.09229078923274125
17:09,0.09247390587804431
17:09,0.0933894891045596
17:09,0.09787584691448453
17:09,0.11032777879509248
17:09,0.1279985350668376
17:09,0.14072514191540011
17:09,0.14063358359274858
17:09,0.12708295184032228
17:09,0.10730635414759201
17:09,0.09174143929683208
17:09,0.08395898187145212
17:09,0.07928950741622413
17:09,0.0696758835378136
17:09,0.04861746932796191
17:09,0.01794543123969969
17:09,-0.012635048525911005
17:09,-0.03726423731917231
17:09,-0.05639992675334188
17:09,-0.07233107489470793
17:09,-0.08780443142281634
17:09,-0.1050173960813038
17:09,-0.12296282732100348
17:09,-0.13871085881706646
17:09,-0.15189525727888664
17:09,-0.16507965574070682
17:09,-0.17844717084783007
17:09,-0.19062442776048344
17:09,-0.20042116828419704
17:09,-0.20747115912836478
17:09,-0.21122505035707745
17:09,-0.21095037538912287
17:09,-0.20618934261124336
17:09,-0.19849844350851492
17:09,-0.1918146859549533
17:09,-0.18723676982237686
17:09,-0.18220106207654277
17:09,-0.17615821278154184
17:09,-0.17103094671305621
17:09,-0.16828419703351036
17:09,-0.16654458890313129
17:09,-0.16352316425563085
17:09,-0.15921992309100896
17:09,-0.15592382347555392
17:09,-0.15464200695843253
17:09,-0.1542757736678264
17:09,-0.15445889031312945
17:09,-0.15619849844350853
17:09,-0.16077641457608496
17:09,-0.16709393883904047
17:09,-0.17139718000366233
17:09,-0.1691082219373741
17:09,-0.15821278154184215
17:09,-0.14283098333638528
17:09,-0.13101995971433802
17:09,-0.12561801867789782
17:09,-0.1239699688701703
17:09,-0.12277971067570043
17:09,-0.12012451931880608
17:09,-0.11646218641274492
17:09,-0.11334920344259293
17:09,-0.11151803698956235
17:09,-0.11078557040835012
17:09,-0.11133492034425929
17:09,-0.11435634499175976
17:09,-0.1198498443508515
17:09,-0.124610877128731
17:09,-0.12314594396630654
17:09,-0.11472257828236587
17:09,-0.10446804614539462
17:09,-0.09641091375206007
17:09,-0.09137520600622596
17:09,-0.08890313129463469
17:09,-0.08725508148690717
17:09,-0.0842336568394067
17:09,-0.08002197399743637
17:09,-0.07764145760849661
17:09,-0.0785570408350119
17:09,-0.07993041567478484
17:09,-0.07901483244826955
17:09,-0.0766343160593298
17:09,-0.07434535799304157
17:09,-0.07187328328145029
17:09,-0.06830250869804065
17:09,-0.06427394250137337
17:09,-0.06335835927485808
17:09,-0.06921809192455594
17:09,-0.0779161325764512
17:09,-0.08258560703167918
17:09,-0.07910639077092108
17:09,-0.0665629005676616
17:09,-0.04971616919978026
17:09,-0.03744735396447537
17:09,-0.03277787950924739
17:09,-0.03167917963742904
17:09,-0.02893242995788317
17:09,-0.02426295550265519
17:09,-0.020966855887200146
17:09,-0.02060062259659403
17:09,-0.019227247756821095
17:09,-0.014374656656290057
17:09,-0.007049990844167735
17:09,0.0018311664530305805
17:09,0.013001281816517121
17:09,0.025544772019776597
17:09,0.03744735396447537
17:09,0.04715253616553745
17:09,0.053012268815235304
17:09,0.053744735396447536
17:09,0.04870902765061344
17:09,0.03772202893242996
17:09,0.0233473722761399
17:09,0.010895440395531954
17:09,0.005676616004394799
17:09,0.0061344076176524445
17:09,0.004120124519318806
17:09,-0.008057132393334554
17:09,-0.030397363120307636
17:09,-0.049075260941219556
17:09,-0.046420069584325215
17:09,-0.02261490569492767
17:09,0.004211682841970335
17:09,0.024812305438564365
17:09,0.05090642739425014
17:09,0.09970701336751511
17:09,0.17304522981138987
17:09,0.25086980406518955
17:09,0.3001281816517121
17:09,0.2937190990661051
17:09,0.22486724043215528
17:09,0.11106024537630471
17:09,-0.008331807361289141
17:09,-0.10108038820728804
17:09,-0.1615088811572972
17:09,-0.18687053653177074
17:09,-0.17093938839040468
17:09,-0.12415308551547335
17:09,-0.06647134224501007
17:09,-0.011536348654092657
17:09,0.030214246475004577
17:09,0.05420252700970518
17:09,0.0652810840505402
17:09,0.0706830250869804
17:09,0.07397912470243545
17:09,0.08121223219190625
17:09,0.1006225965940304
17:09,0.13083684306903498
17:09,0.15912836476835746
17:09,0.17679912104010254
17:09,0.18668741988646767
17:09,0.19474455227980222
17:09,0.20225233473722762
17:09,0.20710492583775866
17:09,0.21021790880791064
17:09,0.21964841604101812
17:09,0.24519318806079474
17:09,0.28850027467496797
17:09,0.34087163523164254
17:09,0.39141182933528657
17:09,0.43352865775498994
17:09,0.4686870536531771
17:09,0.5053103827137887
17:09,0.5468778611975829
17:09,0.5862479399377404
17:09,0.6153634865409265
17:09,0.6330342428126716
17:09,0.6418238417872184
17:09,0.6444790331441128
17:09,0.6442959164988098
17:09,0.6466764328877495
17:09,0.6582127815418422
17:09,0.6774400292986632
17:09,0.6951107855704084
17:09,0.7067386925471525
17:09,0.7141549166819264
17:09,0.7183665995238967
17:09,0.7200146493316243
17:09,0.7201977659769273
17:09,0.7188243911371544
17:09,0.7136971250686688
17:09,0.7045412928035159
17:09,0.6949276689251053
17:09,0.6895257278886651
17:09,0.6914484526643472
17:09,0.7009705182201063
17:09,0.7142464750045779
17:09,0.7254165903680645
17:09,0.7333821644387475
17:09,0.7413477385094305
17:09,0.749221754257462
17:09,0.7498626625160227
17:09,0.7352133308917781
17:09,0.7065555759018495
17:09,0.672038088262223
17:09,0.6319355429408533
17:09,0.5753524995422084
17:09,0.49963376670939386
17:09,0.4220838674235488
17:09,0.3652261490569493
17:09,0.332814502838308
17:09,0.30626258926936456
17:09,0.26698406885185866
17:09,0.21342245010071415
17:09,0.1558322651529024
17:09,0.09998168833546969
17:09,0.0460538362937191
17:09,-0.005218824391137154
17:09,-0.053012268815235304
17:09,-0.09476286394433255
17:09,-0.1258011353232009
17:09,-0.14457059146676432
17:09,-0.1551913568943417
17:09,-0.16361472257828236
17:09,-0.1759750961362388
17:09,-0.19575169382896906
17:09,-0.21809192455594215
17:09,-0.23301593114814137
17:09,-0.23741073063541476
17:09,-0.23649514740889946
17:09,-0.2369529390221571
17:09,-0.24372825489837027
17:09,-0.25727888665079657
17:09,-0.2720197765976927
17:09,-0.28145028383080023
17:09,-0.28456326680095223
17:09,-0.2841970335103461
17:09,-0.28309833363852777
17:09,-0.2831898919611793
17:09,-0.2848379417689068
17:09,-0.2849295000915583
17:09,-0.2754074345357993
17:09,-0.24876396264420436
17:09,-0.2094854422266984
17:09,-0.17414392968320822
17:09,-0.1532686321186596
17:09,-0.14264786669108223
17:09,-0.13358359274858084
17:09,-0.11994140267350302
17:09,-0.09851675517304523
17:09,-0.07269730818531404
17:09,-0.052005127266068485
17:09,-0.04129280351583959
17:09,-0.03488372093023256
17:09,-0.025636330342428126
17:09,-0.01501556491485076
17:09,-0.010712323750228896
17:09,-0.016388939754623695
17:09,-0.02609412195568577
17:09,-0.03076359641091375
17:09,-0.028749313312580113
17:09,-0.024903863761215894
17:09,-0.022065555759018494
17:09,-0.018952572788866508
17:09,-0.014832448269547702
17:09,-0.010986998718183483
17:09,-0.008240249038637612
17:09,-0.008972715619849844
17:09,-0.01785387291704816
17:09,-0.04056033693462736
17:09,-0.07993041567478484
17:09,-0.13367515107123237
17:09,-0.19547701886101446
17:09,-0.25746200329609964
17:09,-0.3109320637245926
17:09,-0.3486540926570225
17:09,-0.36998718183482876
17:09,-0.38161508881157297
17:09,-0.39251052920710494
17:09,-0.40523713605566747
17:09,-0.41530855154733565
17:09,-0.41952023438930597
17:09,-0.41952023438930597
17:09,-0.41741439296832084
17:09,-0.4157663431605933
17:09,-0.4202527009705182
17:09,-0.43709943233839954
17:09,-0.4650247207471159
17:09,-0.49606299212598426
17:09,-0.5258194469877312
17:09,-0.5553012268815235
17:09,-0.5869804065189526
17:09,-0.6250686687419886
17:09,-0.6715802966489653
17:09,-0.7185497161691998
17:09,-0.7521516205823109
17:09,-0.7675334187877678
17:09,-0.771378868339132
17:09,-0.7711041933711774
17:09,-0.7695477018861014
17:09,-0.7686321186595861
17:09,-0.7717451016297382
17:09,-0.7790697674418605
17:09,-0.7798022340230727
17:09,-0.7652444607214796
17:09,-0.744552279802234
17:09,-0.7291704815967771
17:09,-0.7164438747482146
17:09,-0.6936458524079839
17:09,-0.6429225416590368
17:09,-0.5492583775865226
17:09,-0.4229994506500641
17:09,-0.31047427211133494
17:09,-0.26084966123420616
17:09,-0.28987364951474087
17:09,-0.38179820545687604
17:09,-0.500183116645303
17:09,-0.5994323383995606
17:09,-0.6589452481230544
17:09,-0.6872367698223768
17:09,-0.6887932613074529
17:09,-0.6603186229628273
17:09,-0.6062992125984252
17:09,-0.5393700787401575
17:09,-0.4774766526277239
17:09,-0.4366416407251419
17:09,-0.4160410181285479
17:09,-0.4007507782457425
17:09,-0.3835378135872551
17:09,-0.36989562351217725
17:09,-0.36449368247573705
17:09,-0.364310565830434
17:09,-0.36485991576634313
17:09,-0.36202160776414577
17:09,-0.3540560336934627
17:09,-0.3432521516205823
17:09,-0.3338216443874748
17:09,-0.32439113715436735
17:09,-0.31065738875663795
17:09,-0.2934444240981505
17:09,-0.27815418421534516
17:09,-0.26863211865958614
17:09,-0.26524446072147956
17:09,-0.264969785753525
17:09,-0.25846914484526645
17:09,-0.23448086431056583
17:09,-0.1933711774400293
17:09,-0.14777513275956786
17:09,-0.1034609045962278
17:09,-0.05310382713788683
17:09,0.0021058414209851675
17:09,0.046420069584325215
17:09,0.069401208569859
17:09,0.0807544405786486
17:09,0.10117194652993958
17:09,0.14392968320820362
17:09,0.2031679179637429
17:09,0.26231459439663063
17:09,0.312213880241714
17:09,0.3520417505951291
17:09,0.3845449551364219
17:09,0.4177806262589269
17:09,0.4631935542940853
17:09,0.5279252884087163
17:09,0.610419337117744
17:09,0.6998718183482878
17:09,0.7830983336385278
17:09,0.8531404504669474
17:09,0.9205273759384728
17:09,1.0071415491668192
17:09,1.115638161508881
17:09,1.2248672404321552
17:09,1.3138619300494414
17:09,1.3720014649331624
17:09,1.3994689617286211
17:09,1.4067936275407436
17:09,1.4059696026368798
17:09,1.4050540194103645
17:09,1.4112799853506683
17:09,1.4295000915583227
17:09,1.4557773301593115
17:09,1.4789415857901482
17:09,1.492400659219923
17:09,1.5021058414209851
17:09,1.5162973814319722
17:09,1.5308551547335654
17:09,1.5358908624793994
17:09,1.526826588536898
17:09,1.4978026002563634
17:09,1.4438747482146128
17:09,1.377311847646951
17:09,1.311023622047244
17:09,1.2320087895989746
17:09,1.1227797106757005
17:09,0.9869987181834828
17:09,0.8332722944515657
17:09,0.668925105292071
17:09,0.5101629738143197
17:09,0.36659952389672223
17:09,0.22816334004761032
17:09,0.0879875480681194
17:09,-0.040651895257278886
17:09,-0.14283098333638528
17:09,-0.220838674235488
17:09,-0.2870353415125435
17:09,-0.3530488921442959
17:09,-0.4246475004577916
17:09,-0.4912104010254532
17:09,-0.5355246291887933
17:09,-0.5551181102362205
17:09,-0.5612525178538729
17:09,-0.562992125984252
17:09,-0.5636330342428126
17:09,-0.5639992675334188
17:09,-0.5646401757919794
17:09,-0.5655557590184948
17:09,-0.5661051089544039
17:09,-0.5643655008240249
17:09,-0.5589635597875847
17:09,-0.5508148690715986
17:09,-0.5416590368064457
17:09,-0.5297564548617469
17:09,-0.512818165171214
17:09,-0.49505585057681745
17:09,-0.4837026185680278
17:09,-0.4804065189525728
17:09,-0.48113898553378504
17:09,-0.4817798937923457
17:09,-0.4804980772752243
17:09,-0.47656106940120857
17:09,-0.4694195202343893
17:09,-0.45843252151620584
17:09,-0.44469877311847644
17:09,-0.432155282915217
17:09,-0.42254165903680646
17:09,-0.4136605017396081
17:09,-0.4041384361838491
17:09,-0.3984618201794543
17:09,-0.39983519501922726
17:09,-0.40459622779710674
17:09,-0.4078923274125618
17:09,-0.40889946896172863
17:09,-0.40899102728438014
17:09,-0.40899102728438014
17:09,-0.4092657022523347
17:09,-0.4092657022523347
17:09,-0.40761765244460724
17:09,-0.40368064457059144
17:09,-0.4000183116645303
17:09,-0.3996520783739242
17:09,-0.3993774034059696
17:09,-0.3918696209485442
17:09,-0.3775865226149057
17:09,-0.36357809924922174
17:09,-0.3539644753708112
17:09,-0.34746383446255263
17:09,-0.34297747665262773
17:09,-0.3404138436183849
17:09,-0.3384911188427028
17:09,-0.3336385277421718
17:09,-0.32338399560520054
17:09,-0.30845998901300126
17:09,-0.2911554660318623
17:09,-0.2731184764695111
17:09,-0.2582860281999634
17:09,-0.25004577916132575
17:09,-0.2483061710309467
17:09,-0.2516938289690533
17:09,-0.260300311298297
17:09,-0.2733015931148141
17:09,-0.2892327412561802
17:09,-0.30864310565830433
17:09,-0.32979307819080755
17:09,-0.34654825123603733
17:09,-0.3552462918879326
17:09,-0.3575352499542208
17:09,-0.35588720014649333
17:09,-0.3509430507233107
17:09,-0.34297747665262773
17:09,-0.33226515290239883
17:09,-0.32100347921626077
17:09,-0.31175608862845633
17:09,-0.3002197399743637
17:09,-0.28126716718549716
17:09,-0.25563083684306903
17:09,-0.2123237502288958
17:09,-0.13239333455411098
17:09,-0.02261490569492767
17:09,0.08853689800402857
17:09,0.1772569126533602
17:09,0.21369712506866875
17:09,0.1646218641274492
17:09,0.03772202893242996
17:09,-0.11371543673319905
17:09,-0.23649514740889946
17:09,-0.2955502655191357
17:09,-0.2751327595678447
17:09,-0.1987731184764695
17:09,-0.11188427028016847
17:09,-0.03863761215894525
17:09,0.014283098333638528
17:09,0.04138436183849112
17:09,0.04687786119758286
17:09,0.04513825306720381
17:09,0.0495330525544772
17:09,0.06711225050357078
17:09,0.09448818897637795
17:09,0.11884270280168467
17:09,0.12982970151986817
17:09,0.126167368613807
17:09,0.11142647866691083
17:09,0.09000183116645304
17:09,0.06619666727705549
17:09,0.04468046145394616
17:09,0.02984801318439846
17:09,0.022065555759018494
17:09,0.01794543123969969
17:09,0.012818165171214063
17:09,0.0
17:09,-0.0261856802783373
17:09,-0.059421351400842336
17:09,-0.08386742354880058
17:09,-0.09311481413660502
17:09,-0.09540377220289324
17:09,-0.10025636330342429
17:09,-0.11078557040835012
17:09,-0.12717451016297382
17:09,-0.1485075993407801
17:09,-0.1662699139351767
17:09,-0.16883354696941952
17:09,-0.1564731734114631
17:09,-0.13706280900933895
17:09,-0.11078557040835012
17:09,-0.07471159128364768
17:09,-0.033235671122505035
17:09,0.005493499359091741
17:09,0.03561618751144479
17:09,0.056766160043947994
17:09,0.07764145760849661
17:09,0.10684856253433438
17:09,0.14374656656290058
17:09,0.1803698956235122
17:09,0.20838674235488006
17:09,0.22376854056033693
17:09,0.22926203991942867
17:09,0.23127632301776233
17:09,0.23292437282548983
17:09,0.23100164804980772
17:09,0.21754257462003296
17:09,0.1883354696941952
17:09,0.14878227430873467
17:09,0.10758102911554661
17:09,0.06811939205273759
17:09,0.031312946346822926
17:09,-0.0010986998718183483
17:09,-0.031221388024171397
17:09,-0.06326680095220656
17:09,-0.09851675517304523
17:09,-0.13678813404138437
17:09,-0.1776231459439663
17:09,-0.21854971616919977
17:09,-0.25636330342428126
17:09,-0.2874015748031496
17:09,-0.3094671305621681
17:09,-0.32777879509247393
17:09,-0.3488372093023256
17:09,-0.3704449734480864
17:09,-0.3854605383629372
17:09,-0.3930598791430141
17:09,-0.39882805347006045
17:09,-0.4060611609595312
17:09,-0.4137520600622597
17:09,-0.41961179271195753
17:09,-0.4236403589086248
17:09,-0.4264786669108222
17:09,-0.42794360007324667
17:09,-0.4266617835561253
17:09,-0.42254165903680646
17:09,-0.4155832265152902
17:09,-0.4075260941219557
17:09,-0.4015748031496063
17:09,-0.39919428676066654
17:09,-0.39891961179271196
17:09,-0.39919428676066654
17:09,-0.3993774034059696
17:09,-0.3996520783739242
17:09,-0.4007507782457425
17:09,-0.4024903863761216
17:09,-0.4046877861197583
17:09,-0.406885185863395
17:09,-0.4073429774766526
17:09,-0.4051455777330159
17:09,-0.40212415308551547
17:09,-0.39983519501922726
17:09,-0.3974546786302875
17:09,-0.3940670206921809
17:09,-0.38921442959164987
17:09,-0.38280534700604285
17:09,-0.37630470609778427
17:09,-0.3715436733199048
17:09,-0.36760666544588905
17:09,-0.36220472440944884
17:09,-0.35570408350119026
17:09,-0.35066837575535614
17:09,-0.34718915949459805
17:09,-0.3413294268449002
17:09,-0.331258011353232
17:09,-0.31944698773118474
17:09,-0.3063541475920161
17:09,-0.29097234938655925
17:09,-0.2765976927302692
17:09,-0.2668009522065556
17:09,-0.2591100531038271
17:09,-0.24629188793261308
17:09,-0.22468412378685224
17:09,-0.198681560153818
17:09,-0.17689067936275407
17:09,-0.16269913935176708
17:09,-0.15253616553744737
17:09,-0.13990111701153635
17:09,-0.11994140267350302
17:09,-0.09229078923274125
17:09,-0.06207654275773668
17:09,-0.03543307086614173
17:09,-0.014191540010986999
17:09,0.0024720747115912836
17:09,0.016297381431972166
17:09,0.02984801318439846
17:09,0.04522981138985534
17:09,0.062259659403039735
17:09,0.07764145760849661
17:09,0.08762131477751328
17:09,0.09183299761948362
17:09,0.0933894891045596
17:09,0.09677714704266618
17:09,0.1050173960813038
17:09,0.11884270280168467
17:09,0.1371543673319905
17:09,0.16050173960813038
17:09,0.19163156930965025
17:09,0.23136788134041383
17:09,0.2766892510529207
17:09,0.3242080205090643
17:09,0.37529756454861746
17:09,0.42574620032960997
17:09,0.46200329609961543
17:09,0.479399377403406
17:09,0.4895623512177257
17:09,0.5059512909723494
17:09,0.5297564548617469
17:09,0.5542025270097052
17:09,0.5790148324482696
17:09,0.6095953122138802
17:09,0.6454861746932796
17:09,0.6787218458157847
17:09,0.7005127266068486
17:09,0.7104010254532137
17:09,0.7168101080388207
17:09,0.7277055484343526
17:09,0.7430873466398096
17:09,0.758743819813221
17:09,0.7738509430507233
17:09,0.7976561069401209
17:09,0.8438015015564915
17:09,0.9135689434169566
17:09,0.9958798754806812
17:09,1.0693096502472075
17:09,1.0994323383995606
17:09,1.06106940120857
17:09,0.9606299212598425
17:09,0.8318073612891412
17:09,0.7136055667460172
17:09,0.6327595678447171
17:09,0.602636879692364
17:09,0.6221388024171397
17:09,0.6670939388390404
17:09,0.7030763596410914
17:09,0.7173594579747299
17:09,0.7229445156564732
17:09,0.7336568394067021
17:09,0.7528840871635232
17:09,0.7747665262772386
17:09,0.7887749496429225
17:09,0.7862113166086797
17:09,0.7658853689800403
17:09,0.7375938472807179
17:09,0.7159860831349569
17:09,0.7046328511261674
17:09,0.6957516938289691
17:09,0.68622962827321
17:09,0.6816517121406336
17:09,0.6840322285295733
17:09,0.6873283281450284
17:09,0.6864127449185131
17:09,0.6830250869804065
17:09,0.6788134041384362
17:09,0.6706647134224502
17:09,0.6558322651529024
17:09,0.635689434169566
17:09,0.6132576451199414
17:09,0.5963193554294085
17:09,0.5936641640725142
17:09,0.6007141549166819
17:09,0.6019959714338033
17:09,0.5921076725874382
17:09,0.5794726240615272
17:09,0.5700421168284197
17:09,0.5627174510162973
17:09,0.5563999267533419
17:09,0.5521882439113716
17:09,0.5500824024903864
17:09,0.5481596777147043
17:09,0.5454129280351584
17:09,0.5430324116462186
17:09,0.5429408533235671
17:09,0.5471525361655375
17:09,0.5564914850759934
17:09,0.5698590001831166
17:09,0.5838674235488006
17:09,0.5961362387841055
17:09,0.6062076542757737
17:09,0.6151803698956235
17:09,0.6239699688701703
17:09,0.6333089177806263
17:09,0.6421900750778246
17:09,0.6488738326313862
17:09,0.6526277238600989
17:09,0.6504303241164622
17:09,0.6350485259110054
17:09,0.602453763047061
17:09,0.5591466764328877
17:09,0.515748031496063
17:09,0.4744552279802234
17:09,0.4322468412378685
17:09,0.3932429957883172
17:09,0.36321186595861565
17:09,0.33299761948361106
17:09,0.28886650796557406
17:09,0.2343893059879143
17:09,0.1845815784654825
17:09,0.14365500824024904
17:09,0.10364402124153085
17:09,0.06198498443508515
17:09,0.02243178904962461
17:09,-0.016663614722578282
17:09,-0.05557590184947812
17:09,-0.08670573155099799
17:09,-0.10922907892327413
17:09,-0.13111151803698956
17:09,-0.15574070683025087
17:09,-0.18091924555942135
17:09,-0.20618934261124336
17:09,-0.23246658121223218
17:09,-0.25984251968503935
17:09,-0.2851126167368614
17:09,-0.30287493133125803
17:09,-0.3094671305621681
17:09,-0.3079106390770921
17:09,-0.30516388939754624
17:09,-0.30488921442959166
17:09,-0.30598791430141
17:09,-0.30644570591466763
17:09,-0.30525544772019775
17:09,-0.30287493133125803
17:09,-0.29957883171580296
17:09,-0.2958249404870903
17:09,-0.2924372825489837
17:09,-0.2916132576451199
17:09,-0.2948177989379235
17:09,-0.30278337300860647
17:09,-0.31587621314777514
17:09,-0.3337300860648233
17:09,-0.3540560336934627
17:09,-0.3744735396447537
17:09,-0.39608130379051454
17:09,-0.4191540010986999
17:09,-0.43984618201794545
17:09,-0.45403772202893244
17:09,-0.46301043764878225
17:09,-0.4717084783006775
17:09,-0.4839772935359824
17:09,-0.5005493499359092
17:09,-0.5189525727888665
17:09,-0.5364402124153086
17:09,-0.5533785021058414
17:09,-0.5706830250869804
17:09,-0.5872550814869072
17:09,-0.6030031129829702
17:09,-0.6231459439663065
17:09,-0.6552829152169932
17:09,-0.6980406518952573
17:09,-0.7367698223768541
17:09,-0.7595678447170848
17:09,-0.7708295184032229
17:09,-0.7818165171214063
17:09,-0.795092473905878
17:09,-0.8063541475920161
17:09,-0.8135872550814869
17:09,-0.8174327046328511
17:09,-0.8134956967588354
17:09,-0.7905145577733016
17:09,-0.7453763047060978
17:09,-0.6957516938289691
17:09,-0.6648965390954038
17:09,-0.6556491485075994
17:09,-0.6536348654092657
17:09,-0.6447537081120673
17:09,-0.6231459439663065
17:09,-0.5903680644570591
17:09,-0.555026551913569
17:09,-0.5264603552462919
17:09,-0.5035707745834096
17:09,-0.47656106940120857
17:09,-0.44305072331074896
17:09,-0.41100531038271376
17:09,-0.38610144662149787
17:09,-0.36861380699505586
17:09,-0.3571690166636147
17:09,-0.3466398095586889
17:09,-0.3290606116095953
17:09,-0.3032411646218641
17:09,-0.27806262589269365
17:09,-0.2612158945248123
17:09,-0.24958798754806813
17:09,-0.23429774766526276
17:09,-0.21131660867972898
17:09,-0.18467313678813405
17:09,-0.16269913935176708
17:09,-0.15244460721479583
17:09,-0.15748031496062992
17:09,-0.17588353781358726
17:09,-0.1949276689251053
17:09,-0.1962094854422267
17:09,-0.16810108038820729
17:09,-0.10840505401941036
17:09,-0.021790880791063907
17:09,0.07489470792895074
17:09,0.15372642373191722
17:09,0.19300494414942318
17:09,0.18723676982237686
17:09,0.13514008423365684
17:09,0.046236952939022156
17:09,-0.05365317707379601
17:09,-0.15088811572971983
17:09,-0.23786852224867241
17:09,-0.28914118293352864
17:09,-0.2915216993224684
17:09,-0.2621314777513276
17:09,-0.2169932246841238
17:09,-0.1716718549716169
17:09,-0.15043032411646218
17:09,-0.1580296648965391
17:09,-0.17551730452298114
17:09,-0.18824391137154367
17:09,-0.1952939022157114
17:09,-0.20454129280351585
17:09,-0.22340230726973082
17:09,-0.247665262772386
17:09,-0.26506134407617654
17:09,-0.26963926020875295
17:09,-0.264969785753525
17:09,-0.2559970701336752
17:09,-0.24317890496246108
17:09,-0.22505035707745835
17:09,-0.20600622596594031
17:09,-0.19547701886101446
17:09,-0.19410364402124153
17:09,-0.19410364402124153
17:09,-0.1896172862113166
17:09,-0.17936275407434535
17:09,-0.1652627723860099
17:09,-0.15198681560153818
17:09,-0.14429591649880974
17:09,-0.1429225416590368
17:09,-0.14365500824024904
17:09,-0.14191540010987
17:09,-0.13861930049441495
17:09,-0.13687969236403588
17:09,-0.137245925654642
17:09,-0.13770371726789965
17:09,-0.13578099249221753
17:09,-0.12928035158395898
17:09,-0.1182933528657755
17:09,-0.10364402124153085
17:09,-0.08496612342061893
17:09,-0.06454861746932797
17:09,-0.0466947445522798
17:09,-0.03259476286394433
17:09,-0.01794543123969969
17:09,0.00375389122871269
17:09,0.03460904596227797
17:09,0.06692913385826772
17:09,0.0911920893609229
17:09,0.10510895440395532
17:09,0.11334920344259293
17:09,0.12030763596410914
17:09,0.12625892693645852
17:09,0.12937190990661052
17:09,0.12818165171214063
17:09,0.11911737776963927
17:09,0.09860831349569676
17:09,0.0722395165720564
17:09,0.052005127266068485
17:09,0.04220838674235488
17:09,0.036898004028566196
17:09,0.02810840505401941
17:09,0.014740889946896173
17:09,0.0026551913568943417
17:09,-0.003479216260758103
17:09,-0.007324665812122322
17:09,-0.014191540010986999
17:09,-0.022981138985533785
17:09,-0.025636330342428126
17:09,-0.01785387291704816
17:09,-0.007324665812122322
17:09,-0.006500640908258561
17:09,-0.018128547885002746
17:09,-0.034059696026368796
17:09,-0.0466947445522798
17:09,-0.053744735396447536
17:09,-0.05603369346273576
17:09,-0.05612525178538729
17:09,-0.05557590184947812
17:09,-0.0545687603003113
17:09,-0.05182201062076543
17:09,-0.04715253616553745
17:09,-0.04239150338765794
17:09,-0.039736312030763596
17:09,-0.03717267899652078
17:09,-0.029664896539095403
17:09,-0.015564914850759934
17:09,-0.0007324665812122322
17:09,0.007416224134773851
17:09,0.007049990844167735
17:09,0.0018311664530305805
17:09,-0.0021973997436366965
17:09,-0.003387657938106574
17:09,-0.003937007874015748
17:09,-0.0013733748397729353
17:09,0.009796740523713605
17:09,0.027559055118110236
17:09,0.04422266984068852
17:09,0.055850576817432704
17:09,0.062442776048342793
17:09,0.06518952572788866
17:09,0.06546420069584326
17:09,0.06482329243728255
17:09,0.06555575901849478
17:09,0.06839406702069219
17:09,0.07233107489470793
17:09,0.07599340780076909
17:09,0.07754989928584509
17:09,0.07617652444607215
17:09,0.07352133308917781
17:09,0.07141549166819264
17:09,0.07022523347372277
17:09,0.06958432521516206
17:09,0.06949276689251054
17:09,0.0696758835378136
17:09,0.07004211682841971
17:09,0.0706830250869804
17:09,0.07132393334554112
17:09,0.0715986083134957
17:09,0.07333821644387475
17:09,0.08002197399743637
17:09,0.0911920893609229
17:09,0.10034792162607581
17:09,0.10181285478850027
17:09,0.09522065555759018
17:09,0.08478300677531588
17:09,0.07516938289690533
17:09,0.0674784837941769
17:09,0.061252517853872916
17:09,0.058688884819630104
17:09,0.0615271928218275
17:09,0.0672038088262223
17:09,0.07178172495879875
17:09,0.07526094121955686
17:09,0.0807544405786486
17:09,0.08881157297198315
17:09,0.09741805530122688
17:09,0.10639077092107672
17:09,0.1154550448635781
17:09,0.1220472440944882
17:09,0.12433620216077641
17:09,0.12296282732100348
17:09,0.11801867789782092
17:09,0.11005310382713789
17:09,0.10098882988463652
17:09,0.0933894891045596
17:09,0.08835378135872551
17:09,0.08286028199963377
17:09,0.07214795824940487
17:09,0.05722395165720564
17:09,0.04486357809924922
17:09,0.038912287126899835
17:09,0.03808826222303607
17:09,0.04092657022523347
17:09,0.04568760300311298
17:09,0.04770188610144662
17:09,0.04147592016114265
17:09,0.027375938472807178
17:09,0.012726606848562534
17:09,0.011627906976744186
17:09,0.037996703900384544
17:09,0.09183299761948362
17:09,0.1621497894158579
17:09,0.2372276139901117
17:09,0.30140999816883357
17:09,0.33308917780626257
17:09,0.3142281633400476
17:09,0.24116462186412746
17:09,0.12699139351767075
17:09,-0.0004577916132576451
17:09,-0.10675700421168284
17:09,-0.165629005676616
17:09,-0.17048159677714705
17:09,-0.13678813404138437
17:09,-0.09036806445705915
17:09,-0.04779344442409815
17:09,-0.01867789782091192
17:09,-0.008057132393334554
17:09,-0.0062259659403039735
17:09,-0.0020142830983336385
17:09,0.003296099615455045
17:09,0.005768174327046328
17:09,0.004394799487273393
17:09,-0.00027467496795458707
17:09,-0.007049990844167735
17:09,-0.012360373557956418
17:09,-0.013916865043032411
17:09,-0.010895440395531954
17:09,-0.003937007874015748
17:09,0.0022889580662882256
17:09,0.003570774583409632
17:09,0.0012818165171214063
17:09,-0.0006409082585607032
17:09,-0.0012818165171214063
17:09,-0.0015564914850759934
17:09,-0.003204541292803516
17:09,-0.00750778245742538
17:09,-0.014283098333638528
17:09,-0.019959714338033327
17:09,-0.020783739241897088
17:09,-0.015198681560153818
17:09,-0.0031129829701519868
17:09,0.012635048525911005
17:09,0.026643471891594946
17:09,0.0353415125434902
17:09,0.03964475370811207
17:09,0.04211682841970335
17:09,0.046236952939022156
17:09,0.05630836843069035
17:09,0.07297198315326864
17:09,0.09174143929683208
17:09,0.10611609595312214
17:09,0.11362387841054752
17:09,0.11801867789782092
17:09,0.12561801867789782
17:09,0.14017579197949093
17:09,0.16050173960813038
17:09,0.1804614539461637
17:09,0.19520234389305988
17:09,0.2072880424830617
17:09,0.22157114081670023
17:09,0.23603735579564183
17:09,0.24519318806079474
17:09,0.24803149606299213
17:09,0.24812305438564367
17:09,0.24812305438564367
17:09,0.2479399377403406
17:09,0.24482695477018862
17:09,0.23457242263321737
17:09,0.21470426661783557
17:09,0.18696209485442228
17:09,0.1551913568943417
17:09,0.12241347738509431
17:09,0.09274858084599891
17:09,0.07104925837758652
17:09,0.05923823475553928
17:09,0.05466031862296283
17:09,0.053836293719099065
17:09,0.05502655191356894
17:09,0.058688884819630104
17:09,0.06335835927485808
17:09,0.06436550082402491
17:09,0.060428492950009155
17:09,0.05420252700970518
17:09,0.0488921442959165
17:09,0.048251236037355795
17:09,0.05411096868705365
17:09,0.06573887566379784
17:09,0.0801135323200879
17:09,0.09064273942501373
17:09,0.0936641640725142
17:09,0.0921076725874382
17:09,0.09000183116645304
17:09,0.08908624793993775
17:09,0.08963559787584692
17:09,0.09174143929683208
17:09,0.09567844717084784
17:09,0.10025636330342429
17:09,0.10455960446804614
17:09,0.10922907892327413
17:09,0.11435634499175976
17:09,0.11811023622047244
17:09,0.11847646951107856
17:09,0.11472257828236587
17:09,0.10748947079289507
17:09,0.09915766343160594
17:09,0.09247390587804431
17:09,0.0886284563266801
17:09,0.08707196484160411
17:09,0.08624793993774034
17:09,0.08542391503387659
17:09,0.08432521516205824
17:09,0.08066288225599708
17:09,0.07333821644387475
17:09,0.06473173411463103
17:09,0.05878044314228163
17:09,0.056766160043947994
17:09,0.056583043398644936
17:09,0.056583043398644936
17:09,0.05539278520417506
17:09,0.05227980223402307
17:09,0.04797656106940121
17:09,0.04413111151803699
17:09,0.040835011902581944
17:09,0.036073979124702435
17:09,0.029573338216443874
17:09,0.023896722212049075
17:09,0.020783739241897088
17:09,0.019959714338033327
17:09,0.0205090642739425
17:09,0.020966855887200146
17:09,0.01959348104742721
17:09,0.016205823109320637
17:09,0.012360373557956418
17:09,0.009613623878410547
17:09,0.00842336568394067
17:09,0.008789598974546786
17:09,0.009979857169016663
17:09,0.01034609045962278
17:09,0.0060428492950009155
17:09,-0.005676616004394799
17:09,-0.02160776414576085
17:09,-0.03442592931697491
17:09,-0.040835011902581944
17:09,-0.04239150338765794
17:09,-0.04056033693462736
17:09,-0.03378502105841421
17:09,-0.020875297564548617
17:09,-0.005768174327046328
17:09,0.003845449551364219
17:09,0.005401941036440212
17:09,0.0031129829701519868
17:09,0.0029298663248489287
17:09,0.007965574070683025
17:09,0.01693828969053287
17:09,0.0261856802783373
17:09,0.03351034609045962
17:09,0.037081120673869254
17:09,0.03579930415674785
17:09,0.03094671305621681
17:09,0.02810840505401941
17:09,0.031496062992125984
17:09,0.03662332906061161
17:09,0.036165537447353964
17:09,0.02984801318439846
17:09,0.021333089177806262
17:09,0.010620765427577367
17:09,-0.005310382713788683
17:09,-0.025819446987731184
17:09,-0.04211682841970335
17:09,-0.04861746932796191
17:09,-0.049258377586522614
17:09,-0.0488921442959165
17:09,-0.04788500274674968
17:09,-0.0438564365500824
17:09,-0.03680644570591467
17:09,-0.03213697125068669
17:09,-0.033327229445156564
17:09,-0.03570774583409632
17:09,-0.030580479765610694
17:09,-0.0058597326496978575
17:09,0.048159677714704266
17:09,0.12937190990661052
17:09,0.21552829152169933
17:09,0.27082951840322284
17:09,0.2671671854971617
17:09,0.19501922724775683
17:09,0.06729536714887384
17:09,-0.07516938289690533
17:09,-0.1889763779527559
17:09,-0.25352499542208384
17:09,-0.26835744369163156
17:09,-0.25123603735579564
17:09,-0.22550814869071598
17:09,-0.19501922724775683
17:09,-0.1527192821827504
17:09,-0.10547518769456143
17:09,-0.06839406702069219
17:09,-0.04934993590917414
17:09,-0.04486357809924922
17:09,-0.04687786119758286
17:09,-0.05136421900750778
17:09,-0.05878044314228163
17:09,-0.06692913385826772
17:09,-0.07040835011902583
17:09,-0.06857718366599524
17:09,-0.06637978392235855
17:09,-0.06757004211682842
17:09,-0.07123237502288958
17:09,-0.07434535799304157
17:09,-0.07535249954220839
17:09,-0.0750778245742538
17:09,-0.07434535799304157
17:09,-0.07416224134773851
17:09,-0.07608496612342062
17:09,-0.07974729902948179
17:09,-0.08313495696758835
17:09,-0.08780443142281634
17:09,-0.09696026368796924
17:09,-0.10639077092107672
17:09,-0.10767258743819813
17:09,-0.09860831349569676
17:09,-0.08469144845266435
17:09,-0.07471159128364768
17:09,-0.07324665812122322
17:09,-0.07928950741622413
17:09,-0.0886284563266801
17:09,-0.09741805530122688
17:09,-0.10391869620948545
17:09,-0.10593297930781909
17:09,-0.10144662149789416
17:09,-0.09265702252334737
17:09,-0.08487456509796741
17:09,-0.08066288225599708
17:09,-0.07626808276872368
17:09,-0.06335835927485808
17:09,-0.03845449551364219
17:09,-0.009705182201062076
17:09,0.010986998718183483
17:09,0.020875297564548617
17:09,0.02252334737227614
17:09,0.017212964658487456
17:09,0.003570774583409632
17:09,-0.01684673136788134
17:09,-0.03763047060977843
17:09,-0.05337850210584142
17:09,-0.06573887566379784
17:09,-0.07993041567478484
17:09,-0.09805896355978759
17:09,-0.11746932796191174
17:09,-0.13514008423365684
17:09,-0.15143746566562902
17:09,-0.17103094671305621
17:09,-0.19785753524995423
17:09,-0.2283464566929134
17:09,-0.2537996703900385
17:09,-0.2700054934993591
17:09,-0.28035158395898185
17:09,-0.2874015748031496
17:09,-0.28969053286943786
17:09,-0.287126899835195
17:09,-0.2858450833180736
17:09,-0.29124702435451383
17:09,-0.30278337300860647
17:09,-0.31596777147042665
17:09,-0.3273210034792163
17:09,-0.33556125251785385
17:09,-0.3410547518769456
17:09,-0.34499175975096136
17:09,-0.3480131843984618
17:09,-0.35066837575535614
17:09,-0.3554294085332357
17:09,-0.36485991576634313
17:09,-0.37639626442043583
17:09,-0.3845449551364219
17:09,-0.3874748214612708
17:09,-0.38820728804248306
17:09,-0.38912287126899836
17:09,-0.3908624793993774
17:09,-0.39379234572422633
17:09,-0.3981871452114997
17:09,-0.4051455777330159
17:09,-0.4137520600622597
17:09,-0.4204358176158213
17:09,-0.42290789232741255
17:09,-0.4233656839406702
17:09,-0.4253799670390038
17:09,-0.43105658304339867
17:09,-0.44021241530855154
17:09,-0.44991759750961363
17:09,-0.4561435634499176
17:09,-0.455868888481963
17:09,-0.45074162241347737
17:09,-0.4459805896355979
17:09,-0.44524812305438566
17:09,-0.44772019776597693
17:09,-0.45101629738143195
17:09,-0.4546786302874931
17:09,-0.4610877128731002
17:09,-0.4707928950741622
17:09,-0.4814136605017396
17:09,-0.49011170115363484
17:09,-0.49761948361106023
17:09,-0.5065921992309101
17:09,-0.5170298480131844
17:09,-0.5265519135689434
17:09,-0.5331441127998535
17:09,-0.5365317707379601
17:09,-0.5372642373191723
17:09,-0.534425929316975
17:09,-0.5269181468595495
17:09,-0.5160227064640176
17:09,-0.5053103827137887
17:09,-0.4959714338033327
17:09,-0.487364951474089
17:09,-0.47866691082219376
17:09,-0.4675883537813587
17:09,-0.45129097234938653
17:09,-0.43023255813953487
17:09,-0.4095403772202893
17:09,-0.39379234572422633
17:09,-0.38152353048892146
17:09,-0.3703534151254349
17:09,-0.3607397912470244
17:09,-0.3498443508514924
17:09,-0.33427943600073246
17:09,-0.3164255630836843
17:09,-0.30205090642739424
17:09,-0.29234572422633215
17:09,-0.2848379417689068
17:09,-0.27842885918329974
17:09,-0.27458340963193556
17:09,-0.274491851309284
17:09,-0.27687236769822376
17:09,-0.2754074345357993
17:09,-0.2589269364585241
17:09,-0.22166269913935177
17:09,-0.17643288774949642
17:09,-0.14374656656290058
17:09,-0.12516022706464017
17:09,-0.10419337117744003
17:09,-0.07049990844167735
17:09,-0.027925288408716352
17:09,0.015564914850759934
17:09,0.052096685588720014
17:09,0.07645119941402674
17:09,0.08954403955319538
17:09,0.09412195568577184
17:09,0.09238234755539279
17:09,0.08899468961728621
17:09,0.09329793078190808
17:09,0.11627906976744186
17:09,0.15940303973631204
17:09,0.20930232558139536
17:09,0.25187694561435636
17:09,0.2889580662882256
17:09,0.33327229445156564
17:09,0.38619300494414943
17:09,0.43352865775498994
17:09,0.46804614539461636
17:09,0.501373374839773
17:09,0.5584142098516756
17:09,0.662699139351767
17:09,0.8115729719831533
17:09,0.966764328877495
17:09,1.0836843069034976
17:09,1.1453030580479766
17:09,1.1678264054202527
17:09,1.1772569126533603
17:09,1.1828419703351034
17:09,1.1807361289141183
17:09,1.177073796008057
17:09,1.1952939022157114
17:09,1.2547152536165538
17:09,1.3418787767808094
17:09,1.416224134773851
17:09,1.4521149972532503
17:09,1.4582494048709027
17:09,1.4512909723493865
17:09,1.433711774400293
17:09,1.4003845449551364
17:09,1.3533235671122505
17:09,1.299945065006409
17:09,1.244186046511628
17:09,1.18741988646768
17:09,1.1344076176524447
17:09,1.0918329976194836
17:09,1.0634499175975096
17:09,1.0468778611975829
17:09,1.0329609961545505
17:09,1.0092473905878043
17:09,0.9676799121040103
17:09,0.9143929683208204
17:09,0.8650430324116463
17:09,0.828328145028383
17:09,0.802508698040652
17:09,0.7836476835744369
17:09,0.7653360190441311
17:09,0.738143197216627
17:09,0.6973997436366965
17:09,0.6491485075993407
17:09,0.6047427211133493
17:09,0.570957700054935
17:09,0.5455960446804614
17:09,0.5201428309833364
17:09,0.4891961179271196
17:09,0.45531953854605384
17:09,0.42382347555392785
17:09,0.3964475370811207
17:09,0.37392418970884456
17:09,0.3577183665995239
17:09,0.3469144845266435
17:09,0.3378502105841421
17:09,0.32777879509247393
17:09,0.3144112799853507
17:09,0.294909357260575
17:09,0.27165354330708663
17:09,0.2533418787767808
17:09,0.2451016297381432
17:09,0.24308734663980955
17:09,0.2385094305072331
17:09,0.22495879875480682
17:09,0.20518220106207655
17:09,0.18842702801684674
17:09,0.17844717084783007
17:09,0.16892510529207105
17:09,0.15125434902032595
17:09,0.12552646035524628
17:09,0.09979857169016663
17:09,0.07828236586705732
17:09,0.053927852041750594
17:09,0.018952572788866508
17:09,-0.020966855887200146
17:09,-0.053836293719099065
17:09,-0.08221937374107306
17:09,-0.11710309467130563
17:09,-0.156106940120857
17:09,-0.18476469511078558
17:09,-0.19703351034609046
17:09,-0.1993224684123787
17:09,-0.1990477934444241
17:09,-0.19978026002563634
17:09,-0.20454129280351585
17:09,-0.2169932246841238
17:09,-0.23512177256912653
17:09,-0.25114447903314413
17:09,-0.2599340780076909
17:09,-0.2627723860098883
17:09,-0.2631386193004944
17:09,-0.26304706097784286
17:09,-0.26203991942867605
17:09,-0.2581029115546603
17:09,-0.2504120124519319
17:09,-0.24107306354147592
17:09,-0.2327412561801868
17:09,-0.2252334737227614
17:09,-0.21726789965207838
17:09,-0.2101263504852591
17:09,-0.20719648416041017
17:09,-0.2104010254532137
17:09,-0.21790880791063907
17:09,-0.22660684856253432
17:09,-0.2343893059879143
17:09,-0.24107306354147592
17:09,-0.24913019593481048
17:09,-0.2592931697491302
17:09,-0.26854056033693463
17:09,-0.27385094305072333
17:09,-0.2772386009888299
17:09,-0.28456326680095223
17:09,-0.3001281816517121
17:09,-0.3221021790880791
17:09,-0.34279436000732466
17:09,-0.3551547335652811
17:09,-0.35918329976194835
17:09,-0.35909174143929684
17:09,-0.35799304156747846
17:09,-0.3571690166636147
17:09,-0.3574436916315693
17:09,-0.3595495330525545
17:09,-0.36357809924922174
17:09,-0.3685222486724043
17:09,-0.37200146493316244
17:09,-0.37310016480498076
17:09,-0.3729170481596777
17:09,-0.3725508148690716
17:09,-0.37209302325581395
17:09,-0.37017029848013183
17:09,-0.36577549899285844
17:09,-0.3592748580845999
17:09,-0.35259110053103826
17:09,-0.34718915949459805
17:09,-0.34306903497527924
17:09,-0.3402307269730819
17:09,-0.33839956052005127
17:09,-0.3368430690349753
17:09,-0.3360190441311115
17:09,-0.33556125251785385
17:09,-0.33226515290239883
17:09,-0.32136971250686686
17:09,-0.3032411646218641
17:09,-0.28557040835011904
17:09,-0.2751327595678447
17:09,-0.27018861014466217
17:09,-0.26506134407617654
17:09,-0.257004211682842
17:09,-0.2463834462552646
17:09,-0.23411463101995972
17:09,-0.22212049075260942
17:09,-0.21305621681010803
17:09,-0.2069218091924556
17:09,-0.20170298480131843
17:09,-0.19501922724775683
17:09,-0.18540560336934628
17:09,-0.17331990477934445
17:09,-0.1608679728987365
17:09,-0.14924006592199232
17:09,-0.13678813404138437
17:09,-0.12122321919062443
17:09,-0.10089727156198498
17:09,-0.07645119941402674
17:09,-0.049166819263871085
17:09,-0.019410364402124153
17:09,0.010529207104925838
17:09,0.039736312030763596
17:09,0.07278886650796558
17:09,0.11673686138069951
17:09,0.17203808826222303
17:09,0.22596594030397363
17:09,0.25984251968503935
17:09,0.27046328511261675
17:09,0.27174510162973814
17:09,0.27522431789049623
17:09,0.28026002563633035
17:09,0.28154184215345174
17:09,0.27906976744186046
17:09,0.27577366782640544
17:09,0.27183665995238965
17:09,0.26918146859549535
17:09,0.27156198498443507
17:09,0.2733931514374657
17:09,0.26725874381981324
17:09,0.26185680278337303
17:09,0.26744186046511625
17:09,0.28575352499542206
17:09,0.324848928767625
17:09,0.3824391137154367
17:09,0.4284013916865043
17:09,0.43792345724226334
17:09,0.4155832265152902
17:09,0.3668741988646768
17:09,0.28785936641640725
17:09,0.18668741988646767
17:09,0.08093755722395166
17:09,-0.012360373557956418
17:09,-0.07040835011902583
17:09,-0.07745834096319355
17:09,-0.042666178355612525
17:09,0.008331807361289141
17:09,0.05054019410364402
17:09,0.07342977476652628
17:09,0.08185314045046695
17:09,0.08405054019410364
17:09,0.08331807361289141
17:09,0.0788317158029665
17:09,0.06930965024720748
17:09,0.057498626625160226
17:09,0.04779344442409815
17:09,0.03827137886833913
17:09,0.02243178904962461
17:09,-0.0010071415491668192
17:09,-0.025911005310382713
17:09,-0.047427211133492034
17:09,-0.06702069218091924
17:09,-0.08633949826039188
17:09,-0.10373557956418239
17:09,-0.11847646951107856
17:09,-0.13422450100714156
17:09,-0.15629005676616003
17:09,-0.18531404504669474
17:09,-0.2142464750045779
17:09,-0.23457242263321737
17:09,-0.24482695477018862
17:09,-0.2485808459989013
17:09,-0.24839772935359825
17:09,-0.24537630470609778
17:09,-0.2435451382530672
17:09,-0.24684123786852225
17:09,-0.2542574620032961
17:09,-0.2604834279436001
17:09,-0.2604834279436001
17:09,-0.24931331258011352
17:09,-0.2235854239150339
17:09,-0.18906793627540744
17:09,-0.1598608313495697
17:09,-0.14273942501373374
17:09,-0.13413294268449003
17:09,-0.12891411829335286
17:09,-0.12470243545138253
17:09,-0.12085698590001831
17:09,-0.11893426112433621
17:09,-0.11875114447903315
17:09,-0.11518036989562351
17:09,-0.10309467130562168
17:09,-0.08478300677531588
17:09,-0.06903497527925288
17:09,-0.06198498443508515
17:09,-0.06280900933894891
17:09,-0.06711225050357078
17:09,-0.0722395165720564
17:09,-0.08084599890130013
17:09,-0.09952389672221205
17:09,-0.13111151803698956
17:09,-0.1691082219373741
17:09,-0.20216077641457608
17:09,-0.22477568210950374
17:09,-0.24061527192821827
17:09,-0.2559055118110236
17:09,-0.27275224317890495
17:09,-0.2882255997070134
17:09,-0.2999450650064091
17:09,-0.3078190807544406
17:09,-0.313953488372093
17:09,-0.3185314045046695
17:09,-0.3177073796008057
17:09,-0.30836843069034975
17:09,-0.29426844900201427
17:09,-0.28090093389489107
17:09,-0.2645119941402673
17:09,-0.2343893059879143
17:09,-0.1879692364035891
17:09,-0.13568943416956603
17:09,-0.08835378135872551
17:09,-0.04843435268265885
17:09,-0.014740889946896173
17:09,0.012726606848562534
17:09,0.034242812671671854
17:09,0.05539278520417506
17:09,0.08350119025819447
17:09,0.11490569492766893
17:09,0.13605566746017214
17:09,0.1394433253982787
17:09,0.12818165171214063
17:09,0.11133492034425929
17:09,0.09851675517304523
17:09,0.09412195568577184
17:09,0.0955868888481963
17:09,0.097784288591833
17:09,0.09769273026918147
17:09,0.09522065555759018
17:09,0.09091741439296833
17:09,0.08615638161508882
17:09,0.08130379051455777
17:09,0.07333821644387475
17:09,0.058414209851675516
17:09,0.0375389122871269
17:09,0.017029848013184398
17:09,0.0016480498077275224
17:09,-0.009155832265152902
17:09,-0.01794543123969969
17:09,-0.022798022340230727
17:09,-0.019135689434169566
17:09,-0.0026551913568943417
17:09,0.028383080021973997
17:09,0.06857718366599524
17:09,0.10950375389122871
17:09,0.15308551547335653
17:09,0.20271012635048527
17:09,0.25105292071049257
17:09,0.28657754989928585
17:09,0.3046145394616371
17:09,0.3089177806262589
17:09,0.3069034975279253
17:09,0.30333272294451563
17:09,0.29829701519868157
17:09,0.29097234938655925
17:09,0.28245742537996704
17:09,0.2747665262772386
17:09,0.26799121040102547
17:09,0.25984251968503935
17:09,0.24537630470609778
17:09,0.21946529939571507
17:09,0.181377037172679
17:09,0.13852774217176342
17:09,0.10217908807910639
17:09,0.07526094121955686
17:09,0.05438564365500824
17:09,0.0375389122871269
17:09,0.021790880791063907
17:09,0.0023805163889397546
17:09,-0.02060062259659403
17:09,-0.04147592016114265
17:09,-0.05731550997985717
17:09,-0.07397912470243545
17:09,-0.09989013001281817
17:09,-0.1324848928767625
17:09,-0.15812122321919062
17:09,-0.17057315509979856
17:09,-0.1769822376854056
17:09,-0.1852224867240432
17:09,-0.1962094854422267
17:09,-0.20875297564548617
17:09,-0.22340230726973082
17:09,-0.23887566379783923
17:09,-0.2514191540010987
17:09,-0.26185680278337303
17:09,-0.2742171763413294
17:09,-0.2894158579014832
17:09,-0.3045229811389855
17:09,-0.315326863211866
17:09,-0.3141366050173961
17:09,-0.29728987364951476
17:09,-0.2765061344076177
17:09,-0.26231459439663063
17:09,-0.23997436366965758
17:09,-0.18925105292071048
17:09,-0.1097784288591833
17:09,-0.01776231459439663
17:09,0.06070316791796374
17:09,0.09641091375206007
17:09,0.07544405786485991
17:09,0.005493499359091741
17:09,-0.0899102728438015
17:09,-0.18714521149972532
17:09,-0.2774217176341329
17:09,-0.35222486724043217
17:09,-0.38930598791430143
17:09,-0.3803332722944516
17:09,-0.3442592931697491
17:09,-0.298022340230727
17:09,-0.24555942135140085
17:09,-0.1937374107306354
17:09,-0.15198681560153818
17:09,-0.12351217725691266
17:09,-0.10712323750228896
17:09,-0.099340780076909
17:09,-0.0955868888481963
17:09,-0.09256546420069585
17:09,-0.08963559787584692
17:09,-0.08707196484160411
17:09,-0.08322651529023989
17:09,-0.07654275773667826
17:09,-0.0659219923091009
17:09,-0.05072331074894708
17:09,-0.033144112799853506
17:09,-0.01794543123969969
17:09,-0.008148690715986083
17:09,-0.0027467496795458707
17:09,0.0005493499359091741
17:09,0.0031129829701519868
17:09,0.004761032777879509
17:09,0.0061344076176524445
17:09,0.009247390587804431
17:09,0.014740889946896173
17:09,0.02069218091924556
17:09,0.023988280534700604
17:09,0.023988280534700604
17:09,0.023072697308185314
17:09,0.026002563633034242
17:09,0.03653177073796008
17:09,0.05218824391137154
17:09,0.0659219923091009
17:09,0.07489470792895074
17:09,0.08322651529023989
17:09,0.09641091375206007
17:09,0.11646218641274492
17:09,0.14017579197949093
17:09,0.1602270646401758
17:09,0.17194652993957152
17:09,0.1788134041384362
17:09,0.18668741988646767
17:09,0.19501922724775683
17:09,0.2008789598974547
17:09,0.20518220106207655
17:09,0.20811206738692548
17:09,0.20747115912836478
17:09,0.20234389305987915
17:09,0.19511078557040834
17:09,0.18851858633949825
17:09,0.18311664530305805
17:09,0.17689067936275407
17:09,0.16709393883904047
17:09,0.1501556491485076
17:09,0.12607581029115547
17:09,0.1006225965940304
17:09,0.07974729902948179
17:09,0.06537264237319172
17:09,0.055209668558872
17:09,0.044497344808643105
17:09,0.02984801318439846
17:09,0.010529207104925838
17:09,-0.012818165171214063
17:09,-0.03808826222303607
17:09,-0.059512909723493865
17:09,-0.07278886650796558
17:09,-0.07819080754440579
17:09,-0.07919794909357261
17:09,-0.08084599890130013
17:09,-0.08881157297198315
17:09,-0.10666544588903132
17:09,-0.12928035158395898
17:09,-0.14566929133858267
17:09,-0.14960629921259844
17:09,-0.1416407251419154
17:09,-0.12543490203259478
17:09,-0.10703167917963743
17:09,-0.09091741439296833
17:09,-0.07736678264054203
17:09,-0.0659219923091009
17:09,-0.0574070683025087
17:09,-0.04934993590917414
17:09,-0.0381798205456876
17:09,-0.025911005310382713
17:09,-0.017121406335835927
17:09,-0.011994140267350302
17:09,-0.009064273942501373
17:09,-0.008331807361289141
17:09,-0.009155832265152902
17:09,-0.0061344076176524445
17:09,0.006683757553561619
17:09,0.028383080021973997
17:09,0.05044863578099249
17:09,0.06647134224501007
17:09,0.0766343160593298
17:09,0.08203625709577
17:09,0.08395898187145212
17:09,0.08688884819630105
17:09,0.0936641640725142
17:09,0.10190441311115181
17:09,0.10867972898736496
17:09,0.11371543673319905
17:09,0.11701153634865409
17:09,0.11801867789782092
17:09,0.11664530305804797
17:09,0.11307452847463835
17:09,0.10803882072880425
17:09,0.10199597143380333
17:09,0.09174143929683208
17:09,0.0744369163156931
17:09,0.05420252700970518
17:09,0.03863761215894525
17:09,0.029481779893792345
17:09,0.023622047244094488
17:09,0.01785387291704816
17:09,0.010437648782274309
17:09,0.0007324665812122322
17:09,-0.010437648782274309
17:09,-0.024537630470609778
17:09,-0.0438564365500824
17:09,-0.06674601721296466
17:09,-0.08679728987364951
17:09,-0.09961545504486358
17:09,-0.10648232924372826
17:09,-0.11106024537630471
17:09,-0.11600439479948728
17:09,-0.12104010254532137
17:09,-0.12451931880607947
17:09,-0.12561801867789782
17:09,-0.12506866874198866
17:09,-0.12268815235304889
17:09,-0.11655374473539645
17:09,-0.10373557956418239
17:09,-0.08670573155099799
17:09,-0.07416224134773851
17:09,-0.0706830250869804
17:09,-0.07169016663614723
17:09,-0.07132393334554112
17:09,-0.06848562534334371
17:09,-0.06555575901849478
17:09,-0.06518952572788866
17:09,-0.06738692547152536
17:09,-0.07013367515107123
17:09,-0.07306354147592016
17:09,-0.07681743270463286
17:09,-0.08121223219190625
17:09,-0.08542391503387659
17:09,-0.08954403955319538
17:09,-0.09421351400842337
17:09,-0.09924922175425746
17:09,-0.10364402124153085
17:09,-0.10538362937190991
17:09,-0.10236220472440945
17:09,-0.09522065555759018
17:09,-0.08908624793993775
17:09,-0.08459989013001282
17:09,-0.0750778245742538
17:09,-0.06171030946713056
17:09,-0.05218824391137154
17:09,-0.03808826222303607
17:09,0.004211682841970335
17:09,0.08597326496978576
17:09,0.18439846182017947
17:09,0.2555392785204175
17:09,0.2653360190441311
17:09,0.20417505951290973
17:09,0.09274858084599891
17:09,-0.02609412195568577
17:09,-0.12186412744918514
17:09,-0.1920893609229079
17:09,-0.23823475553927853
17:09,-0.25086980406518955
17:09,-0.2271561984984435
17:09,-0.17863028749313312
17:09,-0.12250503570774583
17:09,-0.07581029115546603
17:09,-0.04715253616553745
17:09,-0.03204541292803516
17:09,-0.024079838857352133
17:09,-0.020875297564548617
17:09,-0.020325947628639443
17:09,-0.01776231459439663
17:09,-0.009064273942501373
17:09,0.003296099615455045
17:09,0.013916865043032411
17:09,0.020783739241897088
17:09,0.025727888665079655
17:09,0.03003112982970152
17:09,0.034334370994323384
17:09,0.03845449551364219
17:09,0.04001098699871818
17:09,0.03927852041750595
17:09,0.04138436183849112
17:09,0.04797656106940121
17:09,0.05246291887932613
17:09,0.04934993590917414
17:09,0.04147592016114265
17:09,0.035158395898187145
17:09,0.03296099615455045
17:09,0.033144112799853506
17:09,0.03351034609045962
17:09,0.033235671122505035
17:09,0.033327229445156564
17:09,0.03579930415674785
17:09,0.04403955319538546
17:09,0.05969602636879692
17:09,0.07819080754440579
17:09,0.0911920893609229
17:09,0.09696026368796924
17:09,0.1028199963376671
17:09,0.11618751144479034
17:09,0.13523164255630837
17:09,0.15381798205456876
17:09,0.17203808826222303
17:09,0.19199780260025637
17:09,0.2104010254532137
17:09,0.22266984068851858
17:09,0.22926203991942867
17:09,0.2337483977293536
17:09,0.2375022889580663
17:09,0.23933345541109688
17:09,0.23741073063541476
17:09,0.23237502288958067
17:09,0.22660684856253432
17:09,0.22212049075260942
17:09,0.21772569126533603
17:09,0.2088445339681377
17:09,0.19236403589086248
17:09,0.17176341329426845
17:09,0.15317707379600806
17:09,0.1350485259110053
17:09,0.11115180369895623
17:09,0.08469144845266435
17:09,0.06491485075993408
17:09,0.05438564365500824
17:09,0.04751876945614356
17:09,0.04028566196667277
17:09,0.033144112799853506
17:09,0.026826588536898004
17:09,0.01968503937007874
17:09,0.009979857169016663
17:09,-0.00018311664530305805
17:09,-0.007324665812122322
17:09,-0.010071415491668192
17:09,-0.011444790331441128
17:09,-0.013550631752426295
17:09,-0.01501556491485076
17:09,-0.015107123237502289
17:09,-0.01492400659219923
17:09,-0.01602270646401758
17:09,-0.01886101446621498
17:09,-0.022065555759018494
17:09,-0.02160776414576085
17:09,-0.013275956784471708
17:09,0.0010986998718183483
17:09,0.01409998168833547
17:09,0.01959348104742721
17:09,0.018494781175608863
17:09,0.014649331624244644
17:09,0.009796740523713605
17:09,0.0030214246475004577
17:09,-0.0059512909723493865
17:09,-0.014832448269547702
17:09,-0.020051272660684856
17:09,-0.019959714338033327
17:09,-0.016572056399926753
17:09,-0.012268815235304889
17:09,-0.007599340780076909
17:09,-0.003479216260758103
17:09,-0.0017396081303790514
17:09,-0.0023805163889397546
17:09,-0.004577916132576451
17:09,-0.007233107489470793
17:09,-0.008972715619849844
17:09,-0.01034609045962278
17:09,-0.012635048525911005
17:09,-0.016297381431972166
17:09,-0.0205090642739425
17:09,-0.02426295550265519
17:09,-0.025544772019776597
17:09,-0.02343893059879143
17:09,-0.021058414209851675
17:09,-0.022157114081670023
17:09,-0.02700970518220106
17:09,-0.033144112799853506
17:09,-0.03845449551364219
17:09,-0.04184215345174876
17:09,-0.04413111151803699
17:09,-0.0460538362937191
17:09,-0.04577916132576451
17:09,-0.04129280351583959
17:09,-0.0347006042849295
17:09,-0.030214246475004577
17:09,-0.029298663248489287
17:09,-0.03085515473356528
17:09,-0.03341878776780809
17:09,-0.03625709577000549
17:09,-0.039003845449551364
17:09,-0.04138436183849112
17:09,-0.042757736678264054
17:09,-0.04284929500091558
17:09,-0.04229994506500641
17:09,-0.04239150338765794
17:09,-0.0438564365500824
17:09,-0.04431422816334005
17:09,-0.03845449551364219
17:09,-0.025819446987731184
17:09,-0.013916865043032411
17:09,-0.00750778245742538
17:09,-0.003937007874015748
17:09,-9.155832265152902e-05
17:09,0.004028566196667277
17:09,0.007233107489470793
17:09,0.007965574070683025
17:09,0.006409082585607032
17:09,0.004944149423182567
17:09,0.005676616004394799
17:09,0.009247390587804431
17:09,0.013550631752426295
17:09,0.016205823109320637
17:09,0.01785387291704816
17:09,0.02069218091924556
17:09,0.024812305438564365
17:09,0.026918146859549533
17:09,0.022889580662882256
17:09,0.010162973814319722
17:09,-0.010895440395531954
17:09,-0.033327229445156564
17:09,-0.047427211133492034
17:09,-0.05255447720197766
17:09,-0.05639992675334188
17:09,-0.06189342611243362
17:09,-0.06116095953122139
17:09,-0.052920710492583775
17:09,-0.05145577733015931
17:09,-0.05786485991576634
17:09,-0.04761032777879509
17:09,-0.0019227247756821095
17:09,0.0744369163156931
17:09,0.1647134224501007
17:09,0.2419886467679912
17:09,0.2787950924739059
17:09,0.26167368613806996
17:09,0.18870170298480132
17:09,0.07342977476652628
17:09,-0.052005127266068485
17:09,-0.1630653726423732
17:09,-0.2483061710309467
17:09,-0.2928035158395898
17:09,-0.2884087163523164
17:09,-0.2467496795458707
17:09,-0.18329976194836112
17:09,-0.11600439479948728
17:09,-0.07086614173228346
17:09,-0.057681743270463284
17:09,-0.06171030946713056
17:09,-0.06711225050357078
17:09,-0.06802783373008607
17:09,-0.06473173411463103
17:09,-0.05823109320637246
17:09,-0.050265519135689433
17:09,-0.0432155282915217
17:09,-0.03827137886833913
17:09,-0.03488372093023256
17:09,-0.03286943783189892
17:09,-0.032228529573338216
17:09,-0.032320087895989745
17:09,-0.03259476286394433
17:09,-0.03259476286394433
17:09,-0.03195385460538363
17:09,-0.03076359641091375
17:09,-0.029207104925837758
17:09,-0.025727888665079655
17:09,-0.018128547885002746
17:09,-0.006866874198864677
17:09,0.00466947445522798
17:09,0.012360373557956418
17:09,0.01409998168833547
17:09,0.011627906976744186
17:09,0.007416224134773851
17:09,0.0022889580662882256
17:09,-0.0028383080021973997
17:09,-0.006500640908258561
17:09,-0.00659219923091009
17:09,-0.0009155832265152902
17:09,0.01117011536348654
17:09,0.027375938472807178
17:09,0.04312396996887017
17:09,0.05777330159311481
17:09,0.07471159128364768
17:09,0.09604468046145395
17:09,0.11838491118842703
17:09,0.13651345907342977
17:09,0.14823292437282548
17:09,0.15482512360373557
17:09,0.15821278154184215
17:09,0.1602270646401758
17:09,0.16196667277055485
17:09,0.16269913935176708
17:09,0.16114264786669108
17:09,0.15784654825123604
17:09,0.15363486540926571
17:09,0.14786669108221936
17:09,0.140358908624794
17:09,0.1306537264237319
17:09,0.11838491118842703
17:09,0.1050173960813038
17:09,0.09137520600622596
17:09,0.07416224134773851
17:09,0.04980772752243179
17:09,0.021333089177806262
17:09,-0.004120124519318806
17:09,-0.021973997436366965
17:09,-0.031129829701519868
17:09,-0.03286943783189892
17:09,-0.030397363120307636
17:09,-0.027467496795458707
17:09,-0.027925288408716352
17:09,-0.03479216260758103
17:09,-0.04706097784288592
17:09,-0.05887200146493316
17:09,-0.0674784837941769
17:09,-0.07397912470243545
17:09,-0.07562717451016297
17:09,-0.06930965024720748
17:09,-0.0602453763047061
17:09,-0.05630836843069035
17:09,-0.05813953488372093
17:09,-0.06097784288591833
17:09,-0.06180186778978209
17:09,-0.06106940120856986
17:09,-0.05978758469144845
17:09,-0.05823109320637246
17:09,-0.05649148507599341
17:09,-0.05502655191356894
17:09,-0.05411096868705365
17:09,-0.05365317707379601
17:09,-0.05337850210584142
17:09,-0.05411096868705365
17:09,-0.05722395165720564
17:09,-0.06189342611243362
17:09,-0.062442776048342793
17:09,-0.05438564365500824
17:09,-0.04129280351583959
17:09,-0.030214246475004577
17:09,-0.02435451382530672
17:09,-0.023713605566746017
17:09,-0.025911005310382713
17:09,-0.027650613440761765
17:09,-0.026551913568943417
17:09,-0.0233473722761399
17:09,-0.019410364402124153
17:09,-0.014740889946896173
17:09,-0.009522065555759018
17:09,-0.0060428492950009155
17:09,-0.007874015748031496
17:09,-0.016480498077275224
17:09,-0.028383080021973997
17:09,-0.03726423731917231
17:09,-0.040651895257278886
17:09,-0.040835011902581944
17:09,-0.04028566196667277
17:09,-0.03964475370811207
17:09,-0.038820728804248306
17:09,-0.03680644570591467
17:09,-0.032411646218641274
17:09,-0.025086980406518952
17:09,-0.01593114814136605
17:09,-0.005768174327046328
17:09,0.005035707745834096
17:09,0.01501556491485076
17:09,0.021241530855154733
17:09,0.02353048892144296
17:09,0.02435451382530672
17:09,0.02609412195568577
17:09,0.028840871635231642
17:09,0.03177073796008057
17:09,0.03479216260758103
17:09,0.039003845449551364
17:09,0.045504486357809924
17:09,0.055850576817432704
17:09,0.07004211682841971
17:09,0.08606482329243728
17:09,0.10089727156198498
17:09,0.11234206189342612
17:09,0.11930049441494232
17:09,0.12259659403039737
17:09,0.12506866874198866
17:09,0.13037905145577733
17:09,0.13990111701153635
17:09,0.1505218824391137
17:09,0.15757187328328146
17:09,0.15857901483244827
17:09,0.1539095403772203
17:09,0.14685954953305255
17:09,0.14090825856070316
17:09,0.13697125068668742
17:09,0.13431605932979307
17:09,0.1328511261673686
17:09,0.13202710126350486
17:09,0.13101995971433802
17:09,0.12973814319721663
17:09,0.12735762680827686
17:09,0.12039919428676067
17:09,0.1062992125984252
17:09,0.08752975645486175
17:09,0.07004211682841971
17:09,0.05704083501190258
17:09,0.051089544039553195
17:09,0.05420252700970518
17:09,0.062168101080388206
17:09,0.06894341695660136
17:09,0.070957700054935
17:09,0.06537264237319172
17:09,0.06171030946713056
17:09,0.08093755722395166
17:09,0.1324848928767625
17:09,0.20866141732283464
17:09,0.29573338216443873
17:09,0.36980406518952574
17:09,0.3962644204358176
17:09,0.3533235671122505
17:09,0.252334737227614
17:09,0.12213880241713972
17:09,-0.011536348654092657
17:09,-0.11792711957516938
17:09,-0.16480498077275224
17:09,-0.15244460721479583
17:09,-0.1126167368613807
17:09,-0.07022523347372277
17:09,-0.03296099615455045
17:09,-0.005310382713788683
17:09,0.013367515107123237
17:09,0.032411646218641274
17:09,0.05630836843069035
17:09,0.07864859915766344
17:09,0.09201611426478667
17:09,0.09732649697857536
17:09,0.10144662149789416
17:09,0.10840505401941036
17:09,0.11627906976744186
17:09,0.12158945248123054
17:09,0.1233290606116096
17:09,0.12287126899835195
17:09,0.12213880241713972
17:09,0.12149789415857902
17:09,0.12067386925471525
17:09,0.12012451931880608
17:09,0.12314594396630654
17:09,0.13294268449002014
17:09,0.14777513275956786
17:09,0.16141732283464566
17:09,0.16993224684123787
17:09,0.17405237136055668
17:09,0.17689067936275407
17:09,0.17991210401025454
17:09,0.1823841787218458
17:09,0.1848562534334371
17:09,0.19163156930965025
17:09,0.20582310932063724
17:09,0.2230360739791247
17:09,0.2353048892144296
17:09,0.24052371360556674
17:09,0.24235488005859732
17:09,0.2441860465116279
17:09,0.2485808459989013
17:09,0.25654642006958434
17:09,0.2657022523347372
17:09,0.27302691814685953
17:09,0.2766892510529207
17:09,0.2763230177623146
17:09,0.27174510162973814
17:09,0.2645119941402673
17:09,0.2573704449734481
17:09,0.2527925288408716
17:09,0.24995422083867425
17:09,0.24436916315693097
17:09,0.23173411463101995
17:09,0.21195751693828968
17:09,0.18934261124336202
17:09,0.16617835561252517
17:09,0.13999267533418788
17:09,0.10950375389122871
17:09,0.07764145760849661
17:09,0.04596227797106757
17:09,0.01400842336568394
17:09,-0.020325947628639443
17:09,-0.05969602636879692
17:09,-0.10227064640175793
17:09,-0.1398095586888848
17:09,-0.16517121406335836
17:09,-0.18000366233290607
17:09,-0.19163156930965025
17:09,-0.20426661783556124
17:09,-0.21681010803882073
17:09,-0.22770554843435267
17:09,-0.23768540560336934
17:09,-0.2472990294817799
17:09,-0.25563083684306903
17:09,-0.2612158945248123
17:09,-0.26524446072147956
17:09,-0.2710126350485259
17:09,-0.2788866507965574
17:09,-0.28566196667277055
17:09,-0.29005676616004394
17:09,-0.29445156564731734
17:09,-0.30140999816883357
17:09,-0.31285478850027465
17:09,-0.3296099615455045
17:09,-0.3500274674967955
17:09,-0.3662332906061161
17:09,-0.36888848196301044
17:09,-0.3576268082768724
17:09,-0.3422450100714155
17:09,-0.329518403222853
17:09,-0.3173411463101996
17:09,-0.30186778978209117
17:09,-0.2862113166086797
17:09,-0.2794360007324666
17:09,-0.2864859915766343
17:09,-0.30049441494231827
17:09,-0.30937557223951656
17:09,-0.3078190807544406
17:09,-0.30086064823292435
17:09,-0.2959164988097418
17:09,-0.29445156564731734
17:09,-0.29133858267716534
17:09,-0.28117560886284565
17:09,-0.26616004394799486
17:09,-0.25444057864859915
17:09,-0.25004577916132575
17:09,-0.25032045412928033
17:09,-0.25096136238784106
17:09,-0.24903863761215894
17:09,-0.24336202160776416
17:09,-0.2359457974729903
17:09,-0.2306354147592016
17:09,-0.22907892327412563
17:09,-0.2309100897271562
17:09,-0.23484709760117195
17:09,-0.2385094305072331
17:09,-0.24024903863761216
17:09,-0.2391503387657938
17:09,-0.2299945065006409
17:09,-0.2056399926753342
17:09,-0.1716718549716169
17:09,-0.1451199414026735
17:09,-0.13486540926570226
17:09,-0.13468229262039919
17:09,-0.13651345907342977
17:09,-0.13770371726789965
17:09,-0.14072514191540011
17:09,-0.1473173411463102
17:09,-0.15372642373191722
17:09,-0.15317707379600806
17:09,-0.1451199414026735
17:09,-0.1353232008789599
17:09,-0.12689983519501924
17:09,-0.11875114447903315
17:09,-0.1082219373741073
17:09,-0.09357260574986266
17:09,-0.07617652444607215
17:09,-0.059512909723493865
17:09,-0.04577916132576451
17:09,-0.03305255447720198
17:09,-0.01858633949826039
17:09,-0.003845449551364219
17:09,0.005310382713788683
17:09,0.004486357809924922
17:09,-0.003662332906061161
17:09,-0.013825306720380882
17:09,-0.024995422083867423
17:09,-0.04120124519318806
17:09,-0.06344991759750962
17:09,-0.08588170664713422
17:09,-0.09970701336751511
17:09,-0.10190441311115181
17:09,-0.09641091375206007
17:09,-0.0886284563266801
17:09,-0.08322651529023989
17:09,-0.08249404870902766
17:09,-0.08652261490569493
17:09,-0.09457974729902949
17:09,-0.10245376304706098
17:09,-0.10419337117744003
17:09,-0.09705182201062076
17:09,-0.07993041567478484
17:09,-0.047427211133492034
17:09,0.0016480498077275224
17:09,0.055850576817432704
17:09,0.09915766343160594
17:09,0.11838491118842703
17:09,0.10565830433986449
17:09,0.0580479765610694
17:09,-0.01876945614356345
17:09,-0.10565830433986449
17:09,-0.18879326130745286
17:09,-0.2637795275590551
17:09,-0.31175608862845633
17:09,-0.315509979857169
17:09,-0.2826405420252701
17:09,-0.2284380150155649
17:09,-0.1691082219373741
17:09,-0.12543490203259478
17:09,-0.1082219373741073
17:09,-0.10813037905145578
17:09,-0.11279985350668376
17:09,-0.11865958615638161
17:09,-0.1239699688701703
17:09,-0.12543490203259478
17:09,-0.12104010254532137
17:09,-0.11032777879509248
17:09,-0.0958615638161509
17:09,-0.08240249038637612
17:09,-0.07233107489470793
17:09,-0.06509796740523714
17:09,-0.05887200146493316
17:09,-0.05319538546053836
17:09,-0.04898370261856803
17:09,-0.04715253616553745
17:09,-0.047244094488188976
17:09,-0.048251236037355795
17:09,-0.04934993590917414
17:09,-0.04989928584508332
17:09,-0.049990844167734846
17:09,-0.04989928584508332
17:09,-0.04870902765061344
17:09,-0.045504486357809924
17:09,-0.03955319538546054
17:09,-0.030305804797656107
17:09,-0.01876945614356345
17:09,-0.0059512909723493865
17:09,0.011078557040835012
17:09,0.035249954220838674
17:09,0.06198498443508515
17:09,0.08304339864493683
17:09,0.09696026368796924
17:09,0.10922907892327413
17:09,0.12570957700054936
17:09,0.1485075993407801
17:09,0.1760666544588903
17:09,0.20216077641457608
17:09,0.2217542574620033
17:09,0.23622047244094488
17:09,0.24757370444973448
17:09,0.2559055118110236
17:09,0.26231459439663063
17:09,0.2681743270463285
17:09,0.2725691265336019
17:09,0.27385094305072333
17:09,0.2719282182750412
17:09,0.26634316059329793
17:09,0.25563083684306903
17:09,0.24153085515473358
17:09,0.2296282732100348
17:09,0.22157114081670023
17:09,0.21351400842336568
17:09,0.20280168467313678
17:09,0.19071598608313495
17:09,0.17734847097601172
17:09,0.16114264786669108
17:09,0.14228163340047612
17:09,0.12259659403039737
17:09,0.10492583775865226
17:09,0.09357260574986266
17:09,0.08936092290789233
17:09,0.08945248123054386
17:09,0.09137520600622596
17:09,0.09375572239516572
17:09,0.09668558872001465
17:09,0.10117194652993958
17:09,0.10574986266251603
17:09,0.10831349569675884
17:09,0.1084966123420619
17:09,0.10620765427577367
17:09,0.10098882988463652
17:09,0.09384728071781726
17:09,0.08780443142281634
17:09,0.0842336568394067
17:09,0.08139534883720931
17:09,0.07800769089910273
17:09,0.07562717451016297
17:09,0.0763596410913752
17:09,0.08130379051455777
17:09,0.08789598974546786
17:09,0.0921076725874382
17:09,0.09329793078190808
17:09,0.09457974729902949
17:09,0.0990661051089544
17:09,0.10602453763047061
17:09,0.11179271195751694
17:09,0.11463101995971434
17:09,0.11518036989562351
17:09,0.1148141366050174
17:09,0.11435634499175976
17:09,0.11426478666910822
17:09,0.11554660318622963
17:09,0.11838491118842703
17:09,0.12168101080388208
17:09,0.1233290606116096
17:09,0.12250503570774583
17:09,0.1204907526094122
17:09,0.11756088628456327
17:09,0.11087712873100165
17:09,0.09760117194652994
17:09,0.08029664896539096
17:09,0.06418238417872185
17:09,0.05273759384728072
17:09,0.04706097784288592
17:09,0.044588903131294634
17:09,0.04010254532136971
17:09,0.03103827137886834
17:09,0.021058414209851675
17:09,0.01684673136788134
17:09,0.02151620582310932
17:09,0.03085515473356528
17:09,0.03827137886833913
17:09,0.040835011902581944
17:09,0.03927852041750595
17:09,0.03479216260758103
17:09,0.02911554660318623
17:09,0.024720747115912836
17:09,0.022889580662882256
17:09,0.02261490569492767
17:09,0.022981138985533785
17:09,0.02426295550265519
17:09,0.02710126350485259
17:09,0.03094671305621681
17:09,0.03552462918879326
17:09,0.04330708661417323
17:09,0.05795641823841787
17:09,0.07809924922175426
17:09,0.09805896355978759
17:09,0.11453946163706281
17:09,0.12726606848562536
17:09,0.13642190075077826
17:09,0.1429225416590368
17:09,0.1463101995971434
17:09,0.14154916681926388
17:09,0.12552646035524628
17:09,0.10465116279069768
17:09,0.08972715619849844
17:09,0.08395898187145212
17:09,0.08286028199963377
17:09,0.08240249038637612
17:09,0.08386742354880058
17:09,0.0914667643288775
17:09,0.10538362937190991
17:09,0.11508881157297199
17:09,0.11225050357077458
17:09,0.10300311298297016
17:09,0.09421351400842337
17:09,0.09045962277971067
17:09,0.11252517853872918
17:09,0.17689067936275407
17:09,0.2624061527192822
17:09,0.32768723676982237
17:09,0.3431605932979308
17:09,0.29216260758102913
17:09,0.17075627174510163
17:09,0.013459073429774766
17:09,-0.11737776963926021
17:09,-0.19364585240798388
17:09,-0.22798022340230728
17:09,-0.23127632301776233
17:09,-0.21461270829518403
17:09,-0.19666727705548434
17:09,-0.17927119575169384
17:09,-0.15262772386009887
17:09,-0.12085698590001831
17:09,-0.09705182201062076
17:09,-0.08624793993774034
17:09,-0.08551547335652811
17:09,-0.08963559787584692
17:09,-0.09467130562168101
17:09,-0.09824208020509065
17:09,-0.09952389672221205
17:09,-0.0990661051089544
17:09,-0.09815052188243911
17:09,-0.09851675517304523
17:09,-0.10291155466031862
17:09,-0.11179271195751694
17:09,-0.12003296099615456
17:09,-0.12085698590001831
17:09,-0.11316608679728987
17:09,-0.10217908807910639
17:09,-0.09219923091008973
17:09,-0.08377586522614906
17:09,-0.07489470792895074
17:09,-0.06546420069584326
17:09,-0.05832265152902399
17:09,-0.05557590184947812
17:09,-0.055850576817432704
17:09,-0.05612525178538729
17:09,-0.054843435268265885
17:09,-0.05310382713788683
17:09,-0.05264603552462919
17:09,-0.05255447720197766
17:09,-0.050173960813037904
17:09,-0.044405786485991576
17:09,-0.03671488738326314
17:09,-0.028474638344625526
17:09,-0.018311664530305805
17:09,-0.003204541292803516
17:09,0.015748031496062992
17:09,0.034242812671671854
17:09,0.04944149423182567
17:09,0.061435634499175974
17:09,0.07150704999084417
17:09,0.08102911554660319
17:09,0.09100897271561985
17:09,0.10199597143380333
17:09,0.11243362021607764
17:09,0.11865958615638161
17:09,0.12039919428676067
17:09,0.12168101080388208
17:09,0.12360373557956418
17:09,0.1217725691265336
17:09,0.11289141182933529
17:09,0.09915766343160594
17:09,0.08496612342061893
17:09,0.069401208569859
17:09,0.04751876945614356
17:09,0.019135689434169566
17:09,-0.007324665812122322
17:09,-0.02536165537447354
17:09,-0.0353415125434902
17:09,-0.03909540377220289
17:09,-0.03863761215894525
17:09,-0.03854605383629372
17:09,-0.04294085332356711
17:09,-0.0488921442959165
17:09,-0.052005127266068485
17:09,-0.0517304522981139
17:09,-0.05090642739425014
17:09,-0.05347006042849295
17:09,-0.06198498443508515
17:09,-0.07388756637978393
17:09,-0.08286028199963377
17:09,-0.08597326496978576
17:09,-0.08551547335652811
17:09,-0.08459989013001282
17:09,-0.08441677348470976
17:09,-0.08459989013001282
17:09,-0.08487456509796741
17:09,-0.08469144845266435
17:09,-0.08331807361289141
17:09,-0.07938106573887567
17:09,-0.07388756637978393
17:09,-0.0696758835378136
17:09,-0.06839406702069219
17:09,-0.06912653360190442
17:09,-0.06985900018311665
17:09,-0.06912653360190442
17:09,-0.0672038088262223
17:09,-0.06610510895440395
17:09,-0.06647134224501007
17:09,-0.06683757553561619
17:09,-0.06555575901849478
17:09,-0.06317524262955503
17:09,-0.0630836843069035
17:09,-0.06976744186046512
17:09,-0.083592748580846
17:09,-0.09924922175425746
17:09,-0.10858817066471342
17:09,-0.10831349569675884
17:09,-0.10181285478850027
17:09,-0.09110053103827138
17:09,-0.07526094121955686
17:09,-0.05649148507599341
17:09,-0.041750595129097234
17:09,-0.0347006042849295
17:09,-0.03204541292803516
17:09,-0.02911554660318623
17:09,-0.026643471891594946
17:09,-0.028383080021973997
17:09,-0.0375389122871269
17:09,-0.0545687603003113
17:09,-0.07526094121955686
17:09,-0.09137520600622596
17:09,-0.09760117194652994
17:09,-0.09503753891228713
17:09,-0.08780443142281634
17:09,-0.07800769089910273
17:09,-0.06683757553561619
17:09,-0.05694927668925105
17:09,-0.04971616919978026
17:09,-0.0438564365500824
17:09,-0.03863761215894525
17:09,-0.03442592931697491
17:09,-0.03177073796008057
17:09,-0.030214246475004577
17:09,-0.029390221571140816
17:09,-0.028749313312580113
17:09,-0.02609412195568577
17:09,-0.01675517304522981
17:09,0.0020142830983336385
17:09,0.025819446987731184
17:09,0.0438564365500824
17:09,0.04989928584508332
17:09,0.04751876945614356
17:09,0.0438564365500824
17:09,0.04239150338765794
17:09,0.03964475370811207
17:09,0.02527009705182201
17:09,-0.006409082585607032
17:09,-0.04495513642190075
17:09,-0.07196484160410181
17:09,-0.08157846548251237
17:09,-0.08102911554660319
17:09,-0.07526094121955686
17:09,-0.0637245925654642
17:09,-0.047244094488188976
17:09,-0.030488921442959165
17:09,-0.019501922724775682
17:09,-0.01959348104742721
17:09,-0.027467496795458707
17:09,-0.03378502105841421
17:09,-0.02719282182750412
17:09,0.009247390587804431
17:09,0.08130379051455777
17:09,0.16544588903131294
17:09,0.22724775682109505
17:09,0.24977110419337117
17:09,0.23127632301776233
17:09,0.16874198864676798
17:09,0.06903497527925288
17:09,-0.04138436183849112
17:09,-0.1416407251419154
17:09,-0.21845815784654826
17:09,-0.25004577916132575
17:09,-0.23045229811389856
17:09,-0.1852224867240432
17:09,-0.1397180003662333
17:09,-0.10108038820728804
17:09,-0.07031679179637429
17:09,-0.049166819263871085
17:09,-0.03680644570591467
17:09,-0.028474638344625526
17:09,-0.020966855887200146
17:09,-0.015748031496062992
17:09,-0.01492400659219923
17:09,-0.015564914850759934
17:09,-0.009888298846365134
17:09,0.008514924006592199
17:09,0.03451748763962644
17:09,0.053744735396447536
17:09,0.0580479765610694
17:09,0.04971616919978026
17:09,0.03570774583409632
17:09,0.023805163889397546
17:09,0.019410364402124153
17:09,0.023622047244094488
17:09,0.03378502105841421
17:09,0.044405786485991576
17:09,0.05081486907159861
17:09,0.05246291887932613
17:09,0.051913568943416956
17:09,0.05054019410364402
17:09,0.04852591100531038
17:09,0.045321369712506866
17:09,0.04184215345174876
17:09,0.03946163706280901
17:09,0.03863761215894525
17:09,0.03845449551364219
17:09,0.03836293719099066
17:09,0.03937007874015748
17:09,0.04284929500091558
17:09,0.04852591100531038
17:09,0.05466031862296283
17:09,0.061252517853872916
17:09,0.0706830250869804
17:09,0.08441677348470976
17:09,0.10144662149789416
17:09,0.12131477751327596
17:09,0.1447537081120674
17:09,0.16800952206555575
17:09,0.18430690349752793
17:09,0.19044131111518037
17:09,0.18815235304889213
17:09,0.17972898736495146
17:09,0.16828419703351036
17:09,0.15848745650979673
17:09,0.15152902398828053
17:09,0.14530305804797655
17:09,0.13861930049441495
17:09,0.13111151803698956
17:09,0.12158945248123054
17:09,0.1084966123420619
17:09,0.09073429774766527
17:09,0.06885185863394983
17:09,0.04687786119758286
17:09,0.02911554660318623
17:09,0.015290239882805347
17:09,0.003204541292803516
17:09,-0.008148690715986083
17:09,-0.020051272660684856
17:09,-0.031129829701519868
17:09,-0.03808826222303607
17:09,-0.04010254532136971
17:09,-0.03955319538546054
17:09,-0.03863761215894525
17:09,-0.037905145577733015
17:09,-0.03808826222303607
17:09,-0.0403772202893243
17:09,-0.045412928035158395
17:09,-0.05063175242629555
17:09,-0.05182201062076543
17:09,-0.04962461087712873
17:09,-0.048342794360007324
17:09,-0.050997985716901666
17:09,-0.05722395165720564
17:09,-0.06409082585607032
17:09,-0.06848562534334371
17:09,-0.06757004211682842
17:09,-0.05997070133675151
17:09,-0.0495330525544772
17:09,-0.04303241164621864
17:09,-0.043490203259476286
17:09,-0.04870902765061344
17:09,-0.05420252700970518
17:09,-0.056674601721296465
17:09,-0.055667460172129646
17:09,-0.051913568943416956
17:09,-0.04678630287493133
17:09,-0.04211682841970335
17:09,-0.03827137886833913
17:09,-0.035158395898187145
17:09,-0.03259476286394433
17:09,-0.0290239882805347
17:09,-0.025727888665079655
17:09,-0.026643471891594946
17:09,-0.031129829701519868
17:09,-0.03351034609045962
17:09,-0.030672038088262223
17:09,-0.023896722212049075
17:09,-0.01876945614356345
17:09,-0.01858633949826039
17:09,-0.020966855887200146
17:09,-0.023255813953488372
17:09,-0.025636330342428126
17:09,-0.02911554660318623
17:09,-0.03286943783189892
17:09,-0.03552462918879326
17:09,-0.03744735396447537
17:09,-0.03937007874015748
17:09,-0.039827870353415125
17:09,-0.03644021241530855
17:09,-0.029298663248489287
17:09,-0.022157114081670023
17:09,-0.01858633949826039
17:09,-0.018494781175608863
17:09,-0.019410364402124153
17:09,-0.020142830983336385
17:09,-0.02069218091924556
17:09,-0.02142464750045779
17:09,-0.021973997436366965
17:09,-0.02234023072697308
17:09,-0.02252334737227614
17:09,-0.02243178904962461
17:09,-0.020966855887200146
17:09,-0.017304522981138985
17:09,-0.011811023622047244
17:09,-0.0059512909723493865
17:09,0.00018311664530305805
17:09,0.010620765427577367
17:09,0.027925288408716352
17:09,0.04806811939205274
17:09,0.06381615088811574
17:09,0.07187328328145029
17:09,0.07187328328145029
17:09,0.06262589269364585
17:09,0.0460538362937191
17:09,0.028474638344625526
17:09,0.01409998168833547
17:09,0.0016480498077275224
17:09,-0.010712323750228896
17:09,-0.024903863761215894
17:09,-0.042574620032960996
17:09,-0.059604468046145394
17:09,-0.06619666727705549
17:09,-0.05978758469144845
17:09,-0.044497344808643105
17:09,-0.0261856802783373
17:09,-0.015290239882805347
17:09,-0.011994140267350302
17:09,0.005676616004394799
17:09,0.056766160043947994
17:09,0.13459073429774768
17:09,0.21305621681010803
17:09,0.25856070316791796
17:09,0.2489470792895074
17:09,0.19025819446987732
17:09,0.10584142098516755
17:09,0.01794543123969969
17:09,-0.062259659403039735
17:09,-0.1371543673319905
17:09,-0.2012451931880608
17:09,-0.235030214246475
17:09,-0.2299945065006409
17:09,-0.19465299395715072
17:09,-0.1431972166269914
17:09,-0.09540377220289324
17:09,-0.06628822559970701
17:09,-0.05603369346273576
17:09,-0.055759018494781175
17:09,-0.05823109320637246
17:09,-0.0602453763047061
17:09,-0.0615271928218275
17:09,-0.061435634499175974
17:09,-0.05832265152902399
17:09,-0.051089544039553195
17:09,-0.04046877861197583
17:09,-0.02984801318439846
17:09,-0.0233473722761399
17:09,-0.02142464750045779
17:09,-0.021333089177806262
17:09,-0.01886101446621498
17:09,-0.012635048525911005
17:09,-0.005310382713788683
17:09,0.00027467496795458707
17:09,0.004486357809924922
17:09,0.007690899102728438
17:09,0.009979857169016663
17:09,0.01318439846182018
17:09,0.01794543123969969
17:09,0.023622047244094488
17:09,0.028291521699322468
17:09,0.030488921442959165
17:09,0.02984801318439846
17:09,0.027925288408716352
17:09,0.027650613440761765
17:09,0.03085515473356528
17:09,0.036898004028566196
17:09,0.04522981138985534
17:09,0.055209668558872
17:09,0.06583043398644937
17:09,0.07828236586705732
17:09,0.0933894891045596
17:09,0.10758102911554661
17:09,0.11728621131660869
17:09,0.12369529390221572
17:09,0.13239333455411098
17:09,0.14814136605017397
17:09,0.16773484709760117
17:09,0.1804614539461637
17:09,0.1808276872367698
17:09,0.1750595129097235
17:09,0.17075627174510163
17:09,0.1693828969053287
17:09,0.16883354696941952
17:09,0.16819263871085882
17:09,0.1674601721296466
17:09,0.16553744735396447
17:09,0.1558322651529024
17:09,0.13211865958615637
17:09,0.10053103827137887
17:09,0.07544405786485991
17:09,0.057681743270463284
17:09,0.03479216260758103
17:09,0.005127266068485625
17:09,-0.018494781175608863
17:09,-0.029756454861746932
17:09,-0.034242812671671854
17:09,-0.03872917048159678
17:09,-0.04339864493682476
17:09,-0.04660318622962827
17:09,-0.04797656106940121
17:09,-0.04861746932796191
17:09,-0.04880058597326497
17:09,-0.04870902765061344
17:09,-0.048159677714704266
17:09,-0.04788500274674968
17:09,-0.04843435268265885
17:09,-0.050082402490386375
17:09,-0.05328694378318989
17:09,-0.05813953488372093
17:09,-0.06290056766160045
17:09,-0.0659219923091009
17:09,-0.06674601721296466
17:09,-0.06564731734114632
17:09,-0.06280900933894891
17:09,-0.05878044314228163
17:09,-0.05539278520417506
17:09,-0.05347006042849295
17:09,-0.05136421900750778
17:09,-0.04706097784288592
17:09,-0.04110968687053653
17:09,-0.03570774583409632
17:09,-0.03195385460538363
17:09,-0.03012268815235305
17:09,-0.031129829701519868
17:09,-0.03671488738326314
17:09,-0.048251236037355795
17:09,-0.06253433437099433
17:09,-0.07251419154001099
17:09,-0.07416224134773851
17:09,-0.06885185863394983
17:09,-0.061252517853872916
17:09,-0.05557590184947812
17:09,-0.053744735396447536
17:09,-0.05539278520417506
17:09,-0.060520051272660684
17:09,-0.06711225050357078
17:09,-0.06958432521516206
17:09,-0.06106940120856986
17:09,-0.040835011902581944
17:09,-0.021882439113715436
17:09,-0.020051272660684856
17:09,-0.035066837575535616
17:09,-0.05246291887932613
17:09,-0.06363303424281268
17:09,-0.069401208569859
17:09,-0.0706830250869804
17:09,-0.0672038088262223
17:09,-0.0608862845632668
17:09,-0.055667460172129646
17:09,-0.05347006042849295
17:09,-0.05438564365500824
17:09,-0.0580479765610694
17:09,-0.06326680095220656
17:09,-0.0687603003112983
17:09,-0.07361289141182933
17:09,-0.07544405786485991
17:09,-0.070957700054935
17:09,-0.059512909723493865
17:09,-0.04431422816334005
17:09,-0.029390221571140816
17:09,-0.01785387291704816
17:09,-0.011444790331441128
17:09,-0.009613623878410547
17:09,-0.010162973814319722
17:09,-0.01126167368613807
17:09,-0.011811023622047244
17:09,-0.010803882072880425
17:09,-0.009064273942501373
17:09,-0.00842336568394067
17:09,-0.011994140267350302
17:09,-0.021882439113715436
17:09,-0.035982420802050906
17:09,-0.05063175242629555
17:09,-0.06518952572788866
17:09,-0.07901483244826955
17:09,-0.08899468961728621
17:09,-0.0936641640725142
17:09,-0.09357260574986266
17:09,-0.08881157297198315
17:09,-0.08130379051455777
17:09,-0.07416224134773851
17:09,-0.07077458340963194
17:09,-0.07040835011902583
17:09,-0.06271745101629739
17:09,-0.043673319904779344
17:09,-0.02911554660318623
17:09,-0.02160776414576085
17:09,0.00375389122871269
17:09,0.0608862845632668
17:09,0.1305621681010804
17:09,0.18412378685222486
17:09,0.20280168467313678
17:09,0.17258743819813221
17:09,0.09036806445705915
17:09,-0.020234389305987914
17:09,-0.13129463468229263
17:09,-0.2287126899835195
17:09,-0.29234572422633215
17:09,-0.3025086980406519
17:09,-0.269822376854056
17:09,-0.2201977659769273
17:09,-0.167185497161692
17:09,-0.11966672770554844
17:09,-0.09000183116645304
17:09,-0.07919794909357261
17:09,-0.07809924922175426
17:09,-0.08029664896539096
17:09,-0.08304339864493683
17:09,-0.08441677348470976
17:09,-0.08194469877311848
17:09,-0.07516938289690533
17:09,-0.0672038088262223
17:09,-0.06171030946713056
17:09,-0.05795641823841787
17:09,-0.05356161875114448
17:09,-0.04989928584508332
17:09,-0.05072331074894708
17:09,-0.055759018494781175
17:09,-0.06097784288591833
17:09,-0.06381615088811574
17:09,-0.06418238417872185
17:09,-0.060336934627357626
17:09,-0.04989928584508332
17:09,-0.03561618751144479
17:09,-0.023988280534700604
17:09,-0.01675517304522981
17:09,-0.010620765427577367
17:09,-0.004486357809924922
17:09,0.0
17:09,0.0031129829701519868
17:09,0.008881157297198315
17:09,0.021790880791063907
17:09,0.041659036806445705
17:09,0.06317524262955503
17:09,0.08102911554660319
17:09,0.0936641640725142
17:09,0.10053103827137887
17:09,0.10263687969236404
17:09,0.1041018128547885
17:09,0.11014466214978942
17:09,0.12250503570774583
17:09,0.1371543673319905
17:09,0.15024720747115913
17:09,0.1646218641274492
17:09,0.18366599523896723
17:09,0.2040835011902582
17:09,0.22166269913935177
17:09,0.23713605566746018
17:09,0.25105292071049257
17:09,0.26066654458890315
17:09,0.26396264420435817
17:09,0.25883537813587254
17:09,0.24208020509064274
17:09,0.21616919978026003
17:09,0.18870170298480132
17:09,0.16425563083684308
17:09,0.14484526643471893
17:09,0.13147775132759568
17:09,0.11975828602819996
17:09,0.10401025453213697
17:09,0.08588170664713422
17:09,0.07169016663614723
17:09,0.06262589269364585
17:09,0.05365317707379601
17:09,0.040835011902581944
17:09,0.026918146859549533
17:09,0.01602270646401758
17:09,0.007690899102728438
17:09,0.00018311664530305805
17:09,-0.00659219923091009
17:09,-0.01217725691265336
17:09,-0.016572056399926753
17:09,-0.021333089177806262
17:09,-0.027650613440761765
17:09,-0.034242812671671854
17:09,-0.036898004028566196
17:09,-0.03351034609045962
17:09,-0.02728438015015565
17:09,-0.023805163889397546
17:09,-0.02527009705182201
17:09,-0.028840871635231642
17:09,-0.031221388024171397
17:09,-0.03085515473356528
17:09,-0.02636879692364036
17:09,-0.01693828969053287
17:09,-0.004120124519318806
17:09,0.007416224134773851
17:09,0.01217725691265336
17:09,0.00750778245742538
17:09,-0.0024720747115912836
17:09,-0.010803882072880425
17:09,-0.012085698590001831
17:09,-0.004944149423182567
17:09,0.0062259659403039735
17:09,0.014466214978941586
17:09,0.017304522981138985
17:09,0.017029848013184398
17:09,0.016388939754623695
17:09,0.015381798205456876
17:09,0.013275956784471708
17:09,0.009522065555759018
17:09,0.005127266068485625
17:09,0.0026551913568943417
17:09,0.003296099615455045
17:09,0.005035707745834096
17:09,0.004028566196667277
17:09,0.0013733748397729353
17:09,0.0028383080021973997
17:09,0.008972715619849844
17:09,0.013642190075077824
17:09,0.011994140267350302
17:09,0.006958432521516206
17:09,0.004120124519318806
17:09,0.005218824391137154
17:09,0.006775315876213148
17:09,0.007141549166819264
17:09,0.009064273942501373
17:09,0.013825306720380882
17:09,0.0176707562717451
17:09,0.016572056399926753
17:09,0.011811023622047244
17:09,0.009796740523713605
17:09,0.015748031496062992
17:09,0.027375938472807178
17:09,0.03955319538546054
17:09,0.049075260941219556
17:09,0.05466031862296283
17:09,0.05630836843069035
17:09,0.054843435268265885
17:09,0.049990844167734846
17:09,0.04211682841970335
17:09,0.034334370994323384
17:09,0.029573338216443874
17:09,0.027559055118110236
17:09,0.025819446987731184
17:09,0.02142464750045779
17:09,0.012726606848562534
17:09,0.0010986998718183483
17:09,-0.009888298846365134
17:09,-0.017121406335835927
17:09,-0.015473356528108405
17:09,-0.00027467496795458707
17:09,0.019959714338033327
17:09,0.02536165537447354
17:09,0.013367515107123237
17:09,0.004761032777879509
17:09,0.021790880791063907
17:09,0.07690899102728438
17:09,0.1586705731550998
17:09,0.2309100897271562
17:09,0.26423731917231275
17:09,0.2502288958066288
17:09,0.18668741988646767
17:09,0.08102911554660319
17:09,-0.03763047060977843
17:09,-0.13678813404138437
17:09,-0.20170298480131843
17:09,-0.22450100714154916
17:09,-0.20023805163889397
17:09,-0.14905694927668925
17:09,-0.10492583775865226
17:09,-0.08212781541842154
17:09,-0.07297198315326864
17:09,-0.06546420069584326
17:09,-0.054751876945614356
17:09,-0.04376487822743087
17:09,-0.03653177073796008
17:09,-0.03378502105841421
17:09,-0.03396813770371727
17:09,-0.03460904596227797
17:09,-0.034059696026368796
17:09,-0.03204541292803516
17:09,-0.029207104925837758
17:09,-0.025911005310382713
17:09,-0.020325947628639443
17:09,-0.01217725691265336
17:09,-0.004211682841970335
17:09,0.0011902581944698773
17:09,0.003845449551364219
17:09,0.004486357809924922
17:09,0.004028566196667277
17:09,0.003387657938106574
17:09,0.0029298663248489287
17:09,0.003479216260758103
17:09,0.004944149423182567
17:09,0.006317524262955503
17:09,0.007233107489470793
17:09,0.007233107489470793
17:09,0.005035707745834096
17:09,0.0005493499359091741
17:09,-0.0030214246475004577
17:09,-0.0013733748397729353
17:09,0.007782457425379967
17:09,0.02426295550265519
17:09,0.0438564365500824
17:09,0.05969602636879692
17:09,0.06885185863394983
17:09,0.07535249954220839
17:09,0.08459989013001282
17:09,0.09860831349569676
17:09,0.11572971983153268
17:09,0.1315693096502472
17:09,0.14054202527009704
17:09,0.14090825856070316
17:09,0.13761215894524811
17:09,0.1355978758469145
17:09,0.1350485259110053
17:09,0.13523164255630837
17:09,0.1371543673319905
17:09,0.14219007507782458
17:09,0.14978941585790148
17:09,0.1571140816700238
17:09,0.16114264786669108
17:09,0.15720563999267534
17:09,0.137245925654642
17:09,0.10080571323933346
17:09,0.06198498443508515
17:09,0.03763047060977843
17:09,0.030305804797656107
17:09,0.028291521699322468
17:09,0.017121406335835927
17:09,-0.008331807361289141
17:09,-0.03872917048159678
17:09,-0.05887200146493316
17:09,-0.0652810840505402
17:09,-0.06537264237319172
17:09,-0.06518952572788866
17:09,-0.06445705914667643
17:09,-0.0630836843069035
17:09,-0.06482329243728255
17:09,-0.07114081670023806
17:09,-0.0779161325764512
17:09,-0.08139534883720931
17:09,-0.08148690715986083
17:09,-0.07864859915766344
17:09,-0.07278886650796558
17:09,-0.06537264237319172
17:09,-0.0602453763047061
17:09,-0.060336934627357626
17:09,-0.0659219923091009
17:09,-0.07379600805713239
17:09,-0.07993041567478484
17:09,-0.08267716535433071
17:09,-0.08185314045046695
17:09,-0.07590184947811757
17:09,-0.06363303424281268
17:09,-0.0495330525544772
17:09,-0.04028566196667277
17:09,-0.03836293719099066
17:09,-0.04138436183849112
17:09,-0.0460538362937191
17:09,-0.04944149423182567
17:09,-0.049258377586522614
17:09,-0.042757736678264054
17:09,-0.03012268815235305
17:09,-0.016205823109320637
17:09,-0.00659219923091009
17:09,-0.0022889580662882256
17:09,-0.0018311664530305805
17:09,-0.006866874198864677
17:09,-0.020142830983336385
17:09,-0.03827137886833913
17:09,-0.0523713605566746
17:09,-0.05694927668925105
17:09,-0.05319538546053836
17:09,-0.042757736678264054
17:09,-0.026460355246291888
17:09,-0.009064273942501373
17:09,0.0028383080021973997
17:09,0.007416224134773851
17:09,0.007599340780076909
17:09,0.006409082585607032
17:09,0.00659219923091009
17:09,0.010712323750228896
17:09,0.02142464750045779
17:09,0.03662332906061161
17:09,0.04971616919978026
17:09,0.05603369346273576
17:09,0.05786485991576634
17:09,0.05987914301409998
17:09,0.06409082585607032
17:09,0.06930965024720748
17:09,0.07397912470243545
17:09,0.07745834096319355
17:09,0.07983885735213331
17:09,0.08047976561069402
17:09,0.07617652444607215
17:09,0.06354147592016114
17:09,0.04568760300311298
17:09,0.030305804797656107
17:09,0.020966855887200146
17:09,0.01693828969053287
17:09,0.0176707562717451
17:09,0.02060062259659403
17:09,0.021333089177806262
17:09,0.01684673136788134
17:09,0.006866874198864677
17:09,-0.0059512909723493865
17:09,-0.018403222852957334
17:09,-0.026735030214246475
17:09,-0.02527009705182201
17:09,-0.005493499359091741
17:09,0.035158395898187145
17:09,0.08624793993774034
17:09,0.1371543673319905
17:09,0.1870536531770738
17:09,0.23457242263321737
17:09,0.2710126350485259
17:09,0.2753158762131478
17:09,0.22157114081670023
17:09,0.10675700421168284
17:09,-0.04229994506500641
17:09,-0.1883354696941952
17:09,-0.2925288408716352
17:09,-0.3239333455411097
17:09,-0.2829152169932247
17:09,-0.20646401757919794
17:09,-0.13953488372093023
17:09,-0.10611609595312214
17:09,-0.10199597143380333
17:09,-0.10767258743819813
17:09,-0.10382713788683391
17:09,-0.08405054019410364
17:09,-0.05978758469144845
17:09,-0.04962461087712873
17:09,-0.0608862845632668
17:09,-0.08304339864493683
17:09,-0.10025636330342429
17:09,-0.10703167917963743
17:09,-0.10813037905145578
17:09,-0.10730635414759201
17:09,-0.1050173960813038
17:09,-0.10199597143380333
17:09,-0.09979857169016663
17:09,-0.09888298846365134
17:09,-0.09879143014099982
17:09,-0.09915766343160594
17:09,-0.09952389672221205
17:09,-0.09888298846365134
17:09,-0.09604468046145395
17:09,-0.0911920893609229
17:09,-0.08597326496978576
17:09,-0.08221937374107306
17:09,-0.0801135323200879
17:09,-0.07837392418970884
17:09,-0.07581029115546603
17:09,-0.07233107489470793
17:09,-0.06665445889031313
17:09,-0.055667460172129646
17:09,-0.03927852041750595
17:09,-0.02353048892144296
17:09,-0.015290239882805347
17:09,-0.014832448269547702
17:09,-0.015473356528108405
17:09,-0.007965574070683025
17:09,0.012268815235304889
17:09,0.037905145577733015
17:09,0.05630836843069035
17:09,0.06381615088811574
17:09,0.0659219923091009
17:09,0.06793627540743453
17:09,0.07370444973448087
17:09,0.08588170664713422
17:09,0.1012635048525911
17:09,0.11279985350668376
17:09,0.11710309467130563
17:09,0.11527192821827505
17:09,0.10712323750228896
17:09,0.09293169749130196
17:09,0.07736678264054203
17:09,0.06637978392235855
17:09,0.06079472624061527
17:09,0.054934993590917414
17:09,0.04284929500091558
17:09,0.02169932246841238
17:09,-0.007049990844167735
17:09,-0.0381798205456876
17:09,-0.06381615088811574
17:09,-0.0788317158029665
17:09,-0.08496612342061893
17:09,-0.08716352316425563
17:09,-0.08844533968137704
17:09,-0.08807910639077092
17:09,-0.08505768174327047
17:09,-0.0807544405786486
17:09,-0.07736678264054203
17:09,-0.07718366599523897
17:09,-0.08212781541842154
17:09,-0.09274858084599891
17:09,-0.10684856253433438
17:09,-0.12085698590001831
17:09,-0.13129463468229263
17:09,-0.13806995055850577
17:09,-0.1413660501739608
17:09,-0.13742904229994507
17:09,-0.12342061893426112
17:09,-0.10373557956418239
17:09,-0.08725508148690717
17:09,-0.07928950741622413
17:09,-0.0779161325764512
17:09,-0.07764145760849661
17:09,-0.07654275773667826
17:09,-0.07562717451016297
17:09,-0.0750778245742538
17:09,-0.0744369163156931
17:09,-0.0731550997985717
17:09,-0.0715986083134957
17:09,-0.07205639992675335
17:09,-0.07581029115546603
17:09,-0.0807544405786486
17:09,-0.08340963193554295
17:09,-0.08267716535433071
17:09,-0.07910639077092108
17:09,-0.07397912470243545
17:09,-0.06885185863394983
17:09,-0.06546420069584326
17:09,-0.06509796740523714
17:09,-0.06637978392235855
17:09,-0.06637978392235855
17:09,-0.0639992675334188
17:09,-0.0615271928218275
17:09,-0.06171030946713056
17:09,-0.06564731734114632
17:09,-0.07187328328145029
17:09,-0.0779161325764512
17:09,-0.08185314045046695
17:09,-0.08340963193554295
17:09,-0.08377586522614906
17:09,-0.083592748580846
17:09,-0.0829518403222853
17:09,-0.08240249038637612
17:09,-0.08395898187145212
17:09,-0.08972715619849844
17:09,-0.09869987181834829
17:09,-0.10584142098516755
17:09,-0.10648232924372826
17:09,-0.09741805530122688
17:09,-0.07965574070683025
17:09,-0.05987914301409998
17:09,-0.04504669474455228
17:09,-0.035066837575535616
17:09,-0.025727888665079655
17:09,-0.01492400659219923
17:09,-0.003296099615455045
17:09,0.008057132393334554
17:09,0.017579197949093572
17:09,0.02142464750045779
17:09,0.013275956784471708
17:09,-0.010620765427577367
17:09,-0.043581761582127815
17:09,-0.07004211682841971
17:09,-0.08304339864493683
17:09,-0.08789598974546786
17:09,-0.09110053103827138
17:09,-0.09393883904046878
17:09,-0.09540377220289324
17:09,-0.09485442226698407
17:09,-0.0914667643288775
17:09,-0.08725508148690717
17:09,-0.08542391503387659
17:09,-0.08047976561069402
17:09,-0.06546420069584326
17:09,-0.04788500274674968
17:09,-0.031404504669474455
17:09,-0.0007324665812122322
17:09,0.0574070683025087
17:09,0.13953488372093023
17:09,0.22065555759018496
17:09,0.26487822743087347
17:09,0.2502288958066288
17:09,0.17451016297381433
17:09,0.05401941036440212
17:09,-0.07077458340963194
17:09,-0.16453030580479766
17:09,-0.22065555759018496
17:09,-0.23869254715253616
17:09,-0.21635231642556307
17:09,-0.16800952206555575
17:09,-0.12012451931880608
17:09,-0.09082585607031679
17:09,-0.08112067386925471
17:09,-0.08084599890130013
17:09,-0.0807544405786486
17:09,-0.07800769089910273
17:09,-0.0722395165720564
17:09,-0.06299212598425197
17:09,-0.05072331074894708
17:09,-0.03735579564182384
17:09,-0.0233473722761399
17:09,-0.008240249038637612
17:09,0.006958432521516206
17:09,0.02142464750045779
17:09,0.034151254349020325
17:09,0.04303241164621864
17:09,0.04614539461637063
17:09,0.046328511261673685
17:09,0.050997985716901666
17:09,0.062351217725691264
17:09,0.07388756637978393
17:09,0.08093755722395166
17:09,0.08414209851675518
17:09,0.08524079838857353
17:09,0.08569859000183117
17:09,0.08908624793993775
17:09,0.09924922175425746
17:09,0.1163706280900934
17:09,0.1377952755905512
17:09,0.16050173960813038
17:09,0.18210950375389123
17:09,0.1993224684123787
17:09,0.2101263504852591
17:09,0.21809192455594215
17:09,0.22889580662882256
17:09,0.24281267167185497
17:09,0.2549899285845083
17:09,0.2662516022706464
17:09,0.2861197582860282
17:09,0.32155282915216993
17:09,0.36330342428126716
17:09,0.39223585423915036
17:09,0.402215711408167
17:09,0.40368064457059144
17:09,0.4072514191540011
17:09,0.41402673503021425
17:09,0.4208936092290789
17:09,0.4265702252334737
17:09,0.4284013916865043
17:09,0.4235488005859733
17:09,0.4139351767075627
17:09,0.4047793444424098
17:09,0.3981871452114997
17:09,0.39269364585240796
17:09,0.3842702801684673
17:09,0.36879692364035893
17:09,0.34837941768906794
17:09,0.3326313861930049
17:09,0.3253067203808826
17:09,0.3173411463101996
17:09,0.2970151986815602
17:09,0.26506134407617654
17:09,0.23383995605200514
17:09,0.21186595861563817
17:09,0.19950558505768173
17:09,0.19382896905328695
17:09,0.19108221937374106
17:09,0.18806079472624063
17:09,0.18449002014283097
17:09,0.17872184581578465
17:09,0.16507965574070682
17:09,0.14264786669108223
17:09,0.11994140267350302
17:09,0.10428492950009156
17:09,0.08981871452114998
17:09,0.06637978392235855
17:09,0.03653177073796008
17:09,0.012818165171214063
17:09,0.0007324665812122322
17:09,-0.004211682841970335
17:09,-0.007782457425379967
17:09,-0.011444790331441128
17:09,-0.013825306720380882
17:09,-0.013916865043032411
17:09,-0.013550631752426295
17:09,-0.0176707562717451
17:09,-0.03076359641091375
17:09,-0.051089544039553195
17:09,-0.07114081670023806
17:09,-0.0842336568394067
17:09,-0.08908624793993775
17:09,-0.08936092290789233
17:09,-0.08981871452114998
17:09,-0.09320637245925655
17:09,-0.10043947994872734
17:09,-0.11060245376304706
17:09,-0.11994140267350302
17:09,-0.12479399377403406
17:09,-0.12570957700054936
17:09,-0.12488555209668559
17:09,-0.1195751693828969
17:09,-0.10657388756637978
17:09,-0.08981871452114998
17:09,-0.07526094121955686
17:09,-0.06464017579197949
17:09,-0.05923823475553928
17:09,-0.061344076176524445
17:09,-0.07150704999084417
17:09,-0.08542391503387659
17:09,-0.0955868888481963
17:09,-0.09897454678630288
17:09,-0.09723493865592382
17:09,-0.09247390587804431
17:09,-0.08716352316425563
17:09,-0.08432521516205824
17:09,-0.08514924006592199
17:09,-0.08807910639077092
17:09,-0.09045962277971067
17:09,-0.0914667643288775
17:09,-0.09183299761948362
17:09,-0.09174143929683208
17:09,-0.0901849478117561
17:09,-0.08707196484160411
17:09,-0.08459989013001282
17:09,-0.08368430690349753
17:09,-0.08267716535433071
17:09,-0.07837392418970884
17:09,-0.0696758835378136
17:09,-0.05896355978758469
17:09,-0.04861746932796191
17:09,-0.037081120673869254
17:09,-0.02435451382530672
17:09,-0.013550631752426295
17:09,-0.005493499359091741
17:09,0.0009155832265152902
17:09,0.005035707745834096
17:09,0.00558505768174327
17:09,0.0026551913568943417
17:09,-0.0018311664530305805
17:09,-0.006775315876213148
17:09,-0.013459073429774766
17:09,-0.023896722212049075
17:09,-0.035982420802050906
17:09,-0.047244094488188976
17:09,-0.05878044314228163
17:09,-0.06930965024720748
17:09,-0.07535249954220839
17:09,-0.07700054934993592
17:09,-0.07718366599523897
17:09,-0.07608496612342062
17:09,-0.070957700054935
17:09,-0.06116095953122139
17:09,-0.05401941036440212
17:09,-0.05786485991576634
17:09,-0.0706830250869804
17:09,-0.07626808276872368
17:09,-0.05530122688152353
17:09,-0.0016480498077275224
17:09,0.07800769089910273
17:09,0.162516022706464
17:09,0.2169932246841238
17:09,0.21973997436366965
17:09,0.16993224684123787
17:09,0.07242263321735946
17:09,-0.047427211133492034
17:09,-0.1507965574070683
17:09,-0.22468412378685224
17:09,-0.2719282182750412
17:09,-0.2842885918329976
17:09,-0.2626808276872368
17:09,-0.2277971067570042
17:09,-0.1927302691814686
17:09,-0.15848745650979673
17:09,-0.13147775132759568
17:09,-0.11875114447903315
17:09,-0.11664530305804797
17:09,-0.11756088628456327
17:09,-0.11902581944698773
17:09,-0.12122321919062443
17:09,-0.12360373557956418
17:09,-0.12442776048342795
17:09,-0.12241347738509431
17:09,-0.1160959531221388
17:09,-0.10520051272660685
17:09,-0.09238234755539279
17:09,-0.08286028199963377
17:09,-0.07965574070683025
17:09,-0.08148690715986083
17:09,-0.08551547335652811
17:09,-0.08945248123054386
17:09,-0.09219923091008973
17:09,-0.09439663065372643
17:09,-0.09650247207471159
17:09,-0.09760117194652994
17:09,-0.0968687053653177
17:09,-0.09522065555759018
17:09,-0.09412195568577184
17:09,-0.09393883904046878
17:09,-0.0943050723310749
17:09,-0.0936641640725142
17:09,-0.09082585607031679
17:09,-0.08533235671122505
17:09,-0.07736678264054203
17:09,-0.06830250869804065
17:09,-0.06116095953122139
17:09,-0.05832265152902399
17:09,-0.058414209851675516
17:09,-0.05731550997985717
17:09,-0.050082402490386375
17:09,-0.03360190441311115
17:09,-0.011719465299395715
17:09,0.007233107489470793
17:09,0.019318806079472624
17:09,0.02627723860098883
17:09,0.03076359641091375
17:09,0.03369346273576268
17:09,0.03561618751144479
17:09,0.035982420802050906
17:09,0.03177073796008057
17:09,0.02060062259659403
17:09,0.0060428492950009155
17:09,-0.00466947445522798
17:09,-0.012451931880607947
17:09,-0.02527009705182201
17:09,-0.04577916132576451
17:09,-0.0706830250869804
17:09,-0.09760117194652994
17:09,-0.12479399377403406
17:09,-0.14722578282365867
17:09,-0.16141732283464566
17:09,-0.16865043032411647
17:09,-0.17414392968320822
17:09,-0.18055301226881523
17:09,-0.18558872001464932
17:09,-0.1864127449185131
17:09,-0.18375755356161874
17:09,-0.1807361289141183
17:09,-0.18055301226881523
17:09,-0.182933528657755
17:09,-0.1845815784654825
17:09,-0.1839406702069218
17:09,-0.1830250869804065
17:09,-0.1839406702069218
17:09,-0.1870536531770738
17:09,-0.19282182750412014
17:09,-0.20133675151071231
17:09,-0.2106757004211683
17:09,-0.21552829152169933
17:09,-0.2116828419703351
17:09,-0.19538546053836295
17:09,-0.16352316425563085
17:09,-0.12241347738509431
17:09,-0.0877128731001648
17:09,-0.06784471708478301
17:09,-0.05530122688152353
17:09,-0.03872917048159678
17:09,-0.019501922724775682
17:09,-0.008789598974546786
17:09,-0.012451931880607947
17:09,-0.024903863761215894
17:09,-0.03836293719099066
17:09,-0.05154733565281084
17:09,-0.06427394250137337
17:09,-0.07251419154001099
17:09,-0.07498626625160228
17:09,-0.07562717451016297
17:09,-0.07864859915766344
17:09,-0.08496612342061893
17:09,-0.09256546420069585
17:09,-0.0990661051089544
17:09,-0.10245376304706098
17:09,-0.10025636330342429
17:09,-0.0911920893609229
17:09,-0.07910639077092108
17:09,-0.07059146676432888
17:09,-0.06857718366599524
17:09,-0.07013367515107123
17:09,-0.06985900018311665
17:09,-0.06253433437099433
17:09,-0.045412928035158395
17:09,-0.020234389305987914
17:09,0.006500640908258561
17:09,0.02719282182750412
17:09,0.03909540377220289
17:09,0.04403955319538546
17:09,0.045504486357809924
17:09,0.04614539461637063
17:09,0.04751876945614356
17:09,0.04843435268265885
17:09,0.04403955319538546
17:09,0.02636879692364036
17:09,-0.008240249038637612
17:09,-0.05255447720197766
17:09,-0.09155832265152902
17:09,-0.11600439479948728
17:09,-0.12754074345357994
17:09,-0.13385826771653545
17:09,-0.140358908624794
17:09,-0.1505218824391137
17:09,-0.1678264054202527
17:09,-0.1898919611792712
17:09,-0.20499908441677347
17:09,-0.19959714338033327
17:09,-0.16883354696941952
17:09,-0.12625892693645852
17:09,-0.09439663065372643
17:09,-0.08148690715986083
17:09,-0.07919794909357261
17:09,-0.07910639077092108
17:09,-0.07864859915766344
17:09,-0.07846548251236038
17:09,-0.08185314045046695
17:09,-0.09174143929683208
17:09,-0.10510895440395532
17:09,-0.11472257828236587
17:09,-0.11701153634865409
17:09,-0.11490569492766893
17:09,-0.11289141182933529
17:09,-0.11096868705365318
17:09,-0.09888298846365134
17:09,-0.06299212598425197
17:09,-0.0028383080021973997
17:09,0.06198498443508515
17:09,0.1069401208569859
17:09,0.12607581029115547
17:09,0.13733748397729353
17:09,0.16361472257828236
17:09,0.22193737410730635
17:09,0.3218275041201245
17:09,0.4514740889946896
17:09,0.5741622413477385
17:09,0.6566562900567662
17:09,0.6930965024720747
