Timestamp,ECG Voltage (mV)
2024-06-27 15:32:04.200000,-0.0134590734297747
2024-06-27 15:32:04.204000,-0.027009705182201
2024-06-27 15:32:04.208000,-0.0405603369346273
2024-06-27 15:32:04.212000,-0.0534700604284929
2024-06-27 15:32:04.216000,-0.0636330342428126
2024-06-27 15:32:04.220000,-0.067844717084783
2024-06-27 15:32:04.224000,-0.0641823841787218
2024-06-27 15:32:04.228000,-0.0549349935909174
2024-06-27 15:32:04.232000,-0.0438564365500824
2024-06-27 15:32:04.236000,-0.0345174876396264
2024-06-27 15:32:04.240000,-0.0282915216993224
2024-06-27 15:32:04.244000,-0.0246291887932613
2024-06-27 15:32:04.248000,-0.0225233473722761
2024-06-27 15:32:04.252000,-0.0217908807910639
2024-06-27 15:32:04.256000,-0.0204175059512909
2024-06-27 15:32:04.260000,-0.012635048525911
2024-06-27 15:32:04.264000,0.0046694744552279
2024-06-27 15:32:04.268000,0.0262772386009888
2024-06-27 15:32:04.272000,0.0432155282915217
2024-06-27 15:32:04.276000,0.0525544772019776
2024-06-27 15:32:04.280000,0.0567661600439479
2024-06-27 15:32:04.284000,0.0587804431422816
2024-06-27 15:32:04.288000,0.060062259659403
2024-06-27 15:32:04.292000,0.0620765427577366
2024-06-27 15:32:04.296000,0.0654642006958432
2024-06-27 15:32:04.300000,0.0671122505035707
2024-06-27 15:32:04.304000,0.0613440761765244
2024-06-27 15:32:04.308000,0.0456876030031129
2024-06-27 15:32:04.312000,0.0261856802783373
2024-06-27 15:32:04.316000,0.0111701153634865
2024-06-27 15:32:04.320000,0.0011902581944698
2024-06-27 15:32:04.324000,-0.0094305072331074
2024-06-27 15:32:04.328000,-0.0226149056949276
2024-06-27 15:32:04.332000,-0.0356161875114447
2024-06-27 15:32:04.336000,-0.0497161691997802
2024-06-27 15:32:04.340000,-0.0689434169566013
2024-06-27 15:32:04.344000,-0.0928401391686504
2024-06-27 15:32:04.348000,-0.1174693279619117
2024-06-27 15:32:04.352000,-0.1371543673319905
2024-06-27 15:32:04.356000,-0.1475920161142647
2024-06-27 15:32:04.360000,-0.1482329243728254
2024-06-27 15:32:04.364000,-0.1425563083684307
2024-06-27 15:32:04.368000,-0.1352316425563083
2024-06-27 15:32:04.372000,-0.1298297015198681
2024-06-27 15:32:04.376000,-0.1274491851309284
2024-06-27 15:32:04.380000,-0.1276323017762314
2024-06-27 15:32:04.384000,-0.1322102179088079
2024-06-27 15:32:04.388000,-0.1427394250137337
2024-06-27 15:32:04.392000,-0.1532686321186596
2024-06-27 15:32:04.396000,-0.1525361655374473
2024-06-27 15:32:04.400000,-0.1371543673319905
2024-06-27 15:32:04.404000,-0.113715436733199
2024-06-27 15:32:04.408000,-0.0923823475553927
2024-06-27 15:32:04.412000,-0.080662882255997
2024-06-27 15:32:04.416000,-0.0803882072880424
2024-06-27 15:32:04.420000,-0.086888848196301
2024-06-27 15:32:04.424000,-0.0938472807178172
2024-06-27 15:32:04.428000,-0.1001648049807727
2024-06-27 15:32:04.432000,-0.1094121955685771
2024-06-27 15:32:04.436000,-0.1231459439663065
2024-06-27 15:32:04.440000,-0.1376121589452481
2024-06-27 15:32:04.444000,-0.148324482695477
2024-06-27 15:32:04.448000,-0.152993957150705
2024-06-27 15:32:04.452000,-0.1543673319904779
2024-06-27 15:32:04.456000,-0.1588536898004028
2024-06-27 15:32:04.460000,-0.1713971800036623
2024-06-27 15:32:04.464000,-0.1888848196301043
2024-06-27 15:32:04.468000,-0.2036257095770005
2024-06-27 15:32:04.472000,-0.2136971250686687
2024-06-27 15:32:04.476000,-0.2234938655923823
2024-06-27 15:32:04.480000,-0.2349386559238235
2024-06-27 15:32:04.484000,-0.2456509796740523
2024-06-27 15:32:04.488000,-0.2543490203259476
2024-06-27 15:32:04.492000,-0.2589269364585241
2024-06-27 15:32:04.496000,-0.2558139534883721
2024-06-27 15:32:04.500000,-0.2452847463834462
2024-06-27 15:32:04.504000,-0.2312763230177623
2024-06-27 15:32:04.508000,-0.2145211499725325
2024-06-27 15:32:04.512000,-0.1969419520234389
2024-06-27 15:32:04.516000,-0.1841237868522248
2024-06-27 15:32:04.520000,-0.1755173045229811
2024-06-27 15:32:04.524000,-0.1654458890313129
2024-06-27 15:32:04.528000,-0.1535433070866141
2024-06-27 15:32:04.532000,-0.1440212415308551
2024-06-27 15:32:04.536000,-0.1361472257828236
2024-06-27 15:32:04.540000,-0.1222303607397912
2024-06-27 15:32:04.544000,-0.0954037722028932
2024-06-27 15:32:04.548000,-0.0571323933345541
2024-06-27 15:32:04.552000,-0.020600622596594
2024-06-27 15:32:04.556000,0.0012818165171214
2024-06-27 15:32:04.560000,0.0115363486540926
2024-06-27 15:32:04.564000,0.0227064640175791
2024-06-27 15:32:04.568000,0.0387291704815967
2024-06-27 15:32:04.572000,0.0531038271378868
2024-06-27 15:32:04.576000,0.0620765427577366
2024-06-27 15:32:04.580000,0.0679362754074345
2024-06-27 15:32:04.584000,0.07425379967039
2024-06-27 15:32:04.588000,0.0833180736128914
2024-06-27 15:32:04.592000,0.0967771470426661
2024-06-27 15:32:04.596000,0.1150888115729719
2024-06-27 15:32:04.600000,0.1337667093938839
2024-06-27 15:32:04.604000,0.1455777330159311
2024-06-27 15:32:04.608000,0.1488738326313862
2024-06-27 15:32:04.612000,0.1479582494048709
2024-06-27 15:32:04.616000,0.1471342245010071
2024-06-27 15:32:04.620000,0.148324482695477
2024-06-27 15:32:04.624000,0.1525361655374473
2024-06-27 15:32:04.628000,0.1584874565097967
2024-06-27 15:32:04.632000,0.1636147225782823
2024-06-27 15:32:04.636000,0.1679179637429042
2024-06-27 15:32:04.640000,0.1737776963926021
2024-06-27 15:32:04.644000,0.1826588536898004
2024-06-27 15:32:04.648000,0.1929133858267716
2024-06-27 15:32:04.652000,0.2016114264786669
2024-06-27 15:32:04.656000,0.2072880424830617
2024-06-27 15:32:04.660000,0.2093938839040468
2024-06-27 15:32:04.664000,0.2067386925471525
2024-06-27 15:32:04.668000,0.1993224684123787
2024-06-27 15:32:04.672000,0.1899835195019227
2024-06-27 15:32:04.676000,0.1835744369163157
2024-06-27 15:32:04.680000,0.1819263871085881
2024-06-27 15:32:04.684000,0.1838491118842702
2024-06-27 15:32:04.688000,0.1872367698223768
2024-06-27 15:32:04.692000,0.1899835195019227
2024-06-27 15:32:04.696000,0.1918146859549533
2024-06-27 15:32:04.700000,0.1936458524079838
2024-06-27 15:32:04.704000,0.1947445522798022
2024-06-27 15:32:04.708000,0.1941036440212415
2024-06-27 15:32:04.712000,0.1934627357626808
2024-06-27 15:32:04.716000,0.1949276689251053
2024-06-27 15:32:04.720000,0.1979490935726057
2024-06-27 15:32:04.724000,0.1998718183482878
2024-06-27 15:32:04.728000,0.1998718183482878
2024-06-27 15:32:04.732000,0.1992309100897271
2024-06-27 15:32:04.736000,0.1995971433803332
2024-06-27 15:32:04.740000,0.2029848013184398
2024-06-27 15:32:04.744000,0.2108588170664713
2024-06-27 15:32:04.748000,0.2209302325581395
2024-06-27 15:32:04.752000,0.2282548983702618
2024-06-27 15:32:04.756000,0.2301776231459439
2024-06-27 15:32:04.760000,0.2277971067570042
2024-06-27 15:32:04.764000,0.2244094488188976
2024-06-27 15:32:04.768000,0.222578282365867
2024-06-27 15:32:04.772000,0.2224867240432155
2024-06-27 15:32:04.776000,0.2206555575901849
2024-06-27 15:32:04.780000,0.2127815418421534
2024-06-27 15:32:04.784000,0.1992309100897271
2024-06-27 15:32:04.788000,0.1847646951107855
2024-06-27 15:32:04.792000,0.1721296465848745
2024-06-27 15:32:04.796000,0.1570225233473722
2024-06-27 15:32:04.800000,0.13413294268449
2024-06-27 15:32:04.804000,0.1041018128547885
2024-06-27 15:32:04.808000,0.0751693828969053
2024-06-27 15:32:04.812000,0.0564914850759934
2024-06-27 15:32:04.816000,0.050540194103644
2024-06-27 15:32:04.820000,0.0553012268815235
2024-06-27 15:32:04.824000,0.066288225599707
2024-06-27 15:32:04.828000,0.0723310748947079
2024-06-27 15:32:04.832000,0.0613440761765244
2024-06-27 15:32:04.836000,0.0314045046694744
2024-06-27 15:32:04.840000,-0.0026551913568943
2024-06-27 15:32:04.844000,-0.0151986815601538
2024-06-27 15:32:04.848000,0.011078557040835
2024-06-27 15:32:04.852000,0.075993407800769
2024-06-27 15:32:04.856000,0.1672770554843435
2024-06-27 15:32:04.860000,0.2608496612342061
2024-06-27 15:32:04.864000,0.3273210034792163
2024-06-27 15:32:04.868000,0.3444424098150522
2024-06-27 15:32:04.872000,0.2971067570042117
2024-06-27 15:32:04.876000,0.1856802783373008
2024-06-27 15:32:04.880000,0.0445889031312946
2024-06-27 15:32:04.884000,-0.0786485991576634
2024-06-27 15:32:04.888000,-0.1691082219373741
2024-06-27 15:32:04.892000,-0.2306354147592016
2024-06-27 15:32:04.896000,-0.2575535616187511
2024-06-27 15:32:04.900000,-0.2550814869071598
2024-06-27 15:32:04.904000,-0.2384178721845815
2024-06-27 15:32:04.908000,-0.2060062259659403
2024-06-27 15:32:04.912000,-0.1573887566379783
2024-06-27 15:32:04.916000,-0.11197582860282
2024-06-27 15:32:04.920000,-0.0876213147775132
2024-06-27 15:32:04.924000,-0.0825856070316791
2024-06-27 15:32:04.928000,-0.085332356711225
2024-06-27 15:32:04.932000,-0.088445339681377
2024-06-27 15:32:04.936000,-0.0894524812305438
2024-06-27 15:32:04.940000,-0.0859732649697857
2024-06-27 15:32:04.944000,-0.0767258743819813
2024-06-27 15:32:04.948000,-0.0658304339864493
2024-06-27 15:32:04.952000,-0.0609778428859183
2024-06-27 15:32:04.956000,-0.063358359274858
2024-06-27 15:32:04.960000,-0.0676616004394799
2024-06-27 15:32:04.964000,-0.0697674418604651
2024-06-27 15:32:04.968000,-0.0699505585057681
2024-06-27 15:32:04.972000,-0.0696758835378136
2024-06-27 15:32:04.976000,-0.0693096502472074
2024-06-27 15:32:04.980000,-0.0686687419886467
2024-06-27 15:32:04.984000,-0.0679362754074345
2024-06-27 15:32:04.988000,-0.068027833730086
2024-06-27 15:32:04.992000,-0.0701336751510712
2024-06-27 15:32:04.996000,-0.0727888665079655
2024-06-27 15:32:05.000000,-0.0715986083134957
2024-06-27 15:32:05.004000,-0.0613440761765244
2024-06-27 15:32:05.008000,-0.0423915033876579
2024-06-27 15:32:05.012000,-0.0230726973081853
2024-06-27 15:32:05.016000,-0.0107123237502288
2024-06-27 15:32:05.020000,-0.0034792162607581
2024-06-27 15:32:05.024000,0.0057681743270463
2024-06-27 15:32:05.028000,0.0181285478850027
2024-06-27 15:32:05.032000,0.0271012635048525
2024-06-27 15:32:05.036000,0.0272843801501556
2024-06-27 15:32:05.040000,0.0197765976927302
2024-06-27 15:32:05.044000,0.0120856985900018
2024-06-27 15:32:05.048000,0.0115363486540926
2024-06-27 15:32:05.052000,0.0173960813037905
2024-06-27 15:32:05.056000,0.0238051638893975
2024-06-27 15:32:05.060000,0.0287493133125801
2024-06-27 15:32:05.064000,0.0343343709943233
2024-06-27 15:32:05.068000,0.0445889031312946
2024-06-27 15:32:05.072000,0.0619849844350851
2024-06-27 15:32:05.076000,0.082219373741073
2024-06-27 15:32:05.080000,0.0987914301409998
2024-06-27 15:32:05.084000,0.1101446621497894
2024-06-27 15:32:05.088000,0.1205823109320637
2024-06-27 15:32:05.092000,0.1357809924922175
2024-06-27 15:32:05.096000,0.15629005676616
2024-06-27 15:32:05.100000,0.1752426295550265
2024-06-27 15:32:05.104000,0.1860465116279069
2024-06-27 15:32:05.108000,0.1898004028566196
2024-06-27 15:32:05.112000,0.1927302691814686
2024-06-27 15:32:05.116000,0.1965757187328328
2024-06-27 15:32:05.120000,0.1972166269913935
2024-06-27 15:32:05.124000,0.1899835195019227
2024-06-27 15:32:05.128000,0.1755173045229811
2024-06-27 15:32:05.132000,0.1590368064457059
2024-06-27 15:32:05.136000,0.145211499725325
2024-06-27 15:32:05.140000,0.1337667093938839
2024-06-27 15:32:05.144000,0.1179271195751693
2024-06-27 15:32:05.148000,0.0921076725874382
2024-06-27 15:32:05.152000,0.0595129097234938
2024-06-27 15:32:05.156000,0.0274674967954587
2024-06-27 15:32:05.160000,0.0003662332906061
2024-06-27 15:32:05.164000,-0.0195934810474272
2024-06-27 15:32:05.168000,-0.031679179637429
2024-06-27 15:32:05.172000,-0.0370811206738692
2024-06-27 15:32:05.176000,-0.038088262223036
2024-06-27 15:32:05.180000,-0.0366233290606116
2024-06-27 15:32:05.184000,-0.0358908624793993
2024-06-27 15:32:05.188000,-0.0405603369346273
2024-06-27 15:32:05.192000,-0.0534700604284929
2024-06-27 15:32:05.196000,-0.0726057498626625
2024-06-27 15:32:05.200000,-0.0916498809741805
2024-06-27 15:32:05.204000,-0.1039186962094854
2024-06-27 15:32:05.208000,-0.1080388207288042
2024-06-27 15:32:05.212000,-0.1079472624061527
2024-06-27 15:32:05.216000,-0.1080388207288042
2024-06-27 15:32:05.220000,-0.1092290789232741
2024-06-27 15:32:05.224000,-0.1106940120856986
2024-06-27 15:32:05.228000,-0.1120673869254715
2024-06-27 15:32:05.232000,-0.1131660867972898
2024-06-27 15:32:05.236000,-0.1133492034425929
2024-06-27 15:32:05.240000,-0.1120673869254715
2024-06-27 15:32:05.244000,-0.1085881706647134
2024-06-27 15:32:05.248000,-0.1029115546603186
2024-06-27 15:32:05.252000,-0.0969602636879692
2024-06-27 15:32:05.256000,-0.0929316974913019
2024-06-27 15:32:05.260000,-0.091558322651529
2024-06-27 15:32:05.264000,-0.0918329976194836
2024-06-27 15:32:05.268000,-0.091741439296832
2024-06-27 15:32:05.272000,-0.0890862479399377
2024-06-27 15:32:05.276000,-0.0826771653543307
2024-06-27 15:32:05.280000,-0.0743453579930415
2024-06-27 15:32:05.284000,-0.0683940670206921
2024-06-27 15:32:05.288000,-0.0668375755356161
2024-06-27 15:32:05.292000,-0.0675700421168284
2024-06-27 15:32:05.296000,-0.0672953671488738
2024-06-27 15:32:05.300000,-0.0634499175975096
2024-06-27 15:32:05.304000,-0.055392785204175
2024-06-27 15:32:05.308000,-0.0445889031312946
2024-06-27 15:32:05.312000,-0.0335103460904596
2024-06-27 15:32:05.316000,-0.0241713971800036
2024-06-27 15:32:05.320000,-0.0155649148507599
2024-06-27 15:32:05.324000,-0.0044863578099249
2024-06-27 15:32:05.328000,0.0097967405237136
2024-06-27 15:32:05.332000,0.023713605566746
2024-06-27 15:32:05.336000,0.0343343709943233
2024-06-27 15:32:05.340000,0.0411096868705365
2024-06-27 15:32:05.344000,0.0448635780992492
2024-06-27 15:32:05.348000,0.0462369529390221
2024-06-27 15:32:05.352000,0.047610327778795
2024-06-27 15:32:05.356000,0.0510895440395531
2024-06-27 15:32:05.360000,0.053836293719099
2024-06-27 15:32:05.364000,0.0513642190075077
2024-06-27 15:32:05.368000,0.0472440944881889
2024-06-27 15:32:05.372000,0.0479765610694012
2024-06-27 15:32:05.376000,0.0517304522981139
2024-06-27 15:32:05.380000,0.0525544772019776
2024-06-27 15:32:05.384000,0.0501739608130379
2024-06-27 15:32:05.388000,0.0478850027467496
2024-06-27 15:32:05.392000,0.0469694195202343
2024-06-27 15:32:05.396000,0.0451382530672038
2024-06-27 15:32:05.400000,0.0400109869987181
2024-06-27 15:32:05.404000,0.033235671122505
2024-06-27 15:32:05.408000,0.0286577549899285
2024-06-27 15:32:05.412000,0.0274674967954587
2024-06-27 15:32:05.416000,0.0281084050540194
2024-06-27 15:32:05.420000,0.0271928218275041
2024-06-27 15:32:05.424000,0.0216077641457608
2024-06-27 15:32:05.428000,0.0123603735579564
2024-06-27 15:32:05.432000,0.0011902581944698
2024-06-27 15:32:05.436000,-0.0121772569126533
2024-06-27 15:32:05.440000,-0.023896722212049
2024-06-27 15:32:05.444000,-0.0286577549899285
2024-06-27 15:32:05.448000,-0.0265519135689434
2024-06-27 15:32:05.452000,-0.0209668558872001
2024-06-27 15:32:05.456000,-0.0164804980772752
2024-06-27 15:32:05.460000,-0.0184032228529573
2024-06-27 15:32:05.464000,-0.0289324299578831
2024-06-27 15:32:05.468000,-0.0431239699688701
2024-06-27 15:32:05.472000,-0.0529207104925837
2024-06-27 15:32:05.476000,-0.0559421351400842
2024-06-27 15:32:05.480000,-0.0553012268815235
2024-06-27 15:32:05.484000,-0.0544772019776597
2024-06-27 15:32:05.488000,-0.0546603186229628
2024-06-27 15:32:05.492000,-0.0555759018494781
2024-06-27 15:32:05.496000,-0.0567661600439479
2024-06-27 15:32:05.500000,-0.0573155099798571
2024-06-27 15:32:05.504000,-0.0557590184947811
2024-06-27 15:32:05.508000,-0.0531038271378868
2024-06-27 15:32:05.512000,-0.0509979857169016
2024-06-27 15:32:05.516000,-0.0497161691997802
2024-06-27 15:32:05.520000,-0.0487090276506134
2024-06-27 15:32:05.524000,-0.0477934444240981
2024-06-27 15:32:05.528000,-0.0463285112616736
2024-06-27 15:32:05.532000,-0.0449551364219007
2024-06-27 15:32:05.536000,-0.0444057864859915
2024-06-27 15:32:05.540000,-0.0445889031312946
2024-06-27 15:32:05.544000,-0.0445889031312946
2024-06-27 15:32:05.548000,-0.0422999450650064
2024-06-27 15:32:05.552000,-0.0358908624793993
2024-06-27 15:32:05.556000,-0.0261856802783373
2024-06-27 15:32:05.560000,-0.0146493316242446
2024-06-27 15:32:05.564000,-0.0014649331624244
2024-06-27 15:32:05.568000,0.0125434902032594
2024-06-27 15:32:05.572000,0.0234389305987914
2024-06-27 15:32:05.576000,0.0286577549899285
2024-06-27 15:32:05.580000,0.0300311298297015
2024-06-27 15:32:05.584000,0.0304889214429591
2024-06-27 15:32:05.588000,0.0307635964109137
2024-06-27 15:32:05.592000,0.0304889214429591
2024-06-27 15:32:05.596000,0.0292986632484892
2024-06-27 15:32:05.600000,0.0255447720197765
2024-06-27 15:32:05.604000,0.0165720563999267
2024-06-27 15:32:05.608000,0.0030214246475004
2024-06-27 15:32:05.612000,-0.0105292071049258
2024-06-27 15:32:05.616000,-0.0201428309833363
2024-06-27 15:32:05.620000,-0.023713605566746
2024-06-27 15:32:05.624000,-0.0208752975645486
2024-06-27 15:32:05.628000,-0.0158395898187145
2024-06-27 15:32:05.632000,-0.0184032228529573
2024-06-27 15:32:05.636000,-0.0357077458340963
2024-06-27 15:32:05.640000,-0.0590551181102362
2024-06-27 15:32:05.644000,-0.0637245925654642
2024-06-27 15:32:05.648000,-0.025453213697125
2024-06-27 15:32:05.652000,0.0583226515290239
2024-06-27 15:32:05.656000,0.1659036806445706
2024-06-27 15:32:05.660000,0.2647866691082219
2024-06-27 15:32:05.664000,0.3279619117377769
2024-06-27 15:32:05.668000,0.3462735762680827
2024-06-27 15:32:05.672000,0.3159677714704266
2024-06-27 15:32:05.676000,0.2280717817249588
2024-06-27 15:32:05.680000,0.0943966306537264
2024-06-27 15:32:05.684000,-0.047427211133492
2024-06-27 15:32:05.688000,-0.1663614722578282
2024-06-27 15:32:05.692000,-0.2473905878044314
2024-06-27 15:32:05.696000,-0.2798937923457242
2024-06-27 15:32:05.700000,-0.268082768723677
2024-06-27 15:32:05.704000,-0.2331074894707929
2024-06-27 15:32:05.708000,-0.1876030031129829
2024-06-27 15:32:05.712000,-0.1368796923640358
2024-06-27 15:32:05.716000,-0.0976011719465299
2024-06-27 15:32:05.720000,-0.0807544405786486
2024-06-27 15:32:05.724000,-0.0785570408350119
2024-06-27 15:32:05.728000,-0.0786485991576634
2024-06-27 15:32:05.732000,-0.0764511994140267
2024-06-27 15:32:05.736000,-0.0732466581212232
2024-06-27 15:32:05.740000,-0.0715070499908441
2024-06-27 15:32:05.744000,-0.0708661417322834
2024-06-27 15:32:05.748000,-0.0683025086980406
2024-06-27 15:32:05.752000,-0.0626258926936458
2024-06-27 15:32:05.756000,-0.0574070683025087
2024-06-27 15:32:05.760000,-0.0566746017212964
2024-06-27 15:32:05.764000,-0.0594213514008423
2024-06-27 15:32:05.768000,-0.061618751144479
2024-06-27 15:32:05.772000,-0.0607031679179637
2024-06-27 15:32:05.776000,-0.0560336934627357
2024-06-27 15:32:05.780000,-0.0492583775865226
2024-06-27 15:32:05.784000,-0.0431239699688701
2024-06-27 15:32:05.788000,-0.0390954037722028
2024-06-27 15:32:05.792000,-0.0376304706097784
2024-06-27 15:32:05.796000,-0.0379967039003845
2024-06-27 15:32:05.800000,-0.0370811206738692
2024-06-27 15:32:05.804000,-0.0336934627357626
2024-06-27 15:32:05.808000,-0.0274674967954587
2024-06-27 15:32:05.812000,-0.0183116645303058
2024-06-27 15:32:05.816000,-0.0097967405237136
2024-06-27 15:32:05.820000,-0.0057681743270463
2024-06-27 15:32:05.824000,-0.0045779161325764
2024-06-27 15:32:05.828000,-0.0029298663248489
2024-06-27 15:32:05.832000,0.0015564914850759
2024-06-27 15:32:05.836000,0.0088811572971983
2024-06-27 15:32:05.840000,0.0162058231093206
2024-06-27 15:32:05.844000,0.0213330891778062
2024-06-27 15:32:05.848000,0.0250869804065189
2024-06-27 15:32:05.852000,0.0296648965390954
2024-06-27 15:32:05.856000,0.0373557956418238
2024-06-27 15:32:05.860000,0.0480681193920527
2024-06-27 15:32:05.864000,0.0581395348837209
2024-06-27 15:32:05.868000,0.0650979674052371
2024-06-27 15:32:05.872000,0.0702252334737227
2024-06-27 15:32:05.876000,0.0759018494781175
2024-06-27 15:32:05.880000,0.0840505401941036
2024-06-27 15:32:05.884000,0.096227797106757
2024-06-27 15:32:05.888000,0.1113349203442592
2024-06-27 15:32:05.892000,0.1285478850027467
2024-06-27 15:32:05.896000,0.1497894158579014
2024-06-27 15:32:05.900000,0.1743270463285112
2024-06-27 15:32:05.904000,0.1941036440212415
2024-06-27 15:32:05.908000,0.203717267899652
2024-06-27 15:32:05.912000,0.2058231093206372
2024-06-27 15:32:05.916000,0.2059146676432887
2024-06-27 15:32:05.920000,0.2062809009338949
2024-06-27 15:32:05.924000,0.2058231093206372
2024-06-27 15:32:05.928000,0.2022523347372276
2024-06-27 15:32:05.932000,0.1948361106024537
2024-06-27 15:32:05.936000,0.1850393700787401
2024-06-27 15:32:05.940000,0.1737776963926021
2024-06-27 15:32:05.944000,0.1583958981871452
2024-06-27 15:32:05.948000,0.1362387841054751
2024-06-27 15:32:05.952000,0.1089544039553195
2024-06-27 15:32:05.956000,0.0805713239333455
2024-06-27 15:32:05.960000,0.055209668558872
2024-06-27 15:32:05.964000,0.0348837209302325
2024-06-27 15:32:05.968000,0.020600622596594
2024-06-27 15:32:05.972000,0.0131843984618201
2024-06-27 15:32:05.976000,0.0094305072331074
2024-06-27 15:32:05.980000,0.0028383080021973
2024-06-27 15:32:05.984000,-0.0103460904596227
2024-06-27 15:32:05.988000,-0.0258194469877311
2024-06-27 15:32:05.992000,-0.0362570957700054
2024-06-27 15:32:05.996000,-0.0393700787401574
2024-06-27 15:32:06.000000,-0.0386376121589452
2024-06-27 15:32:06.004000,-0.0386376121589452
2024-06-27 15:32:06.008000,-0.0416590368064457
2024-06-27 15:32:06.012000,-0.047427211133492
2024-06-27 15:32:06.016000,-0.0542940853323567
2024-06-27 15:32:06.020000,-0.0610694012085698
2024-06-27 15:32:06.024000,-0.0671122505035707
2024-06-27 15:32:06.028000,-0.0712323750228895
2024-06-27 15:32:06.032000,-0.0732466581212232
2024-06-27 15:32:06.036000,-0.0738875663797839
2024-06-27 15:32:06.040000,-0.07425379967039
2024-06-27 15:32:06.044000,-0.0755356161875114
2024-06-27 15:32:06.048000,-0.0774583409631935
2024-06-27 15:32:06.052000,-0.0784654825123603
2024-06-27 15:32:06.056000,-0.0769089910272843
2024-06-27 15:32:06.060000,-0.0724226332173594
2024-06-27 15:32:06.064000,-0.0671122505035707
2024-06-27 15:32:06.068000,-0.0622596594030397
2024-06-27 15:32:06.072000,-0.0578648599157663
2024-06-27 15:32:06.076000,-0.0562168101080388
2024-06-27 15:32:06.080000,-0.060062259659403
2024-06-27 15:32:06.084000,-0.0682109503753891
2024-06-27 15:32:06.088000,-0.0765427577366782
2024-06-27 15:32:06.092000,-0.0811206738692547
2024-06-27 15:32:06.096000,-0.082219373741073
2024-06-27 15:32:06.100000,-0.0823109320637246
2024-06-27 15:32:06.104000,-0.0827687236769822
2024-06-27 15:32:06.108000,-0.083592748580846
2024-06-27 15:32:06.112000,-0.0850576817432704
2024-06-27 15:32:06.116000,-0.0875297564548617
2024-06-27 15:32:06.120000,-0.0891778062625892
2024-06-27 15:32:06.124000,-0.0851492400659219
2024-06-27 15:32:06.128000,-0.0707745834096319
2024-06-27 15:32:06.132000,-0.0495330525544772
2024-06-27 15:32:06.136000,-0.0319538546053836
2024-06-27 15:32:06.140000,-0.0238051638893975
2024-06-27 15:32:06.144000,-0.023713605566746
2024-06-27 15:32:06.148000,-0.0279252884087163
2024-06-27 15:32:06.152000,-0.0329609961545504
2024-06-27 15:32:06.156000,-0.0368980040285661
2024-06-27 15:32:06.160000,-0.0403772202893243
2024-06-27 15:32:06.164000,-0.0439479948727339
2024-06-27 15:32:06.168000,-0.0471525361655374
2024-06-27 15:32:06.172000,-0.0495330525544772
2024-06-27 15:32:06.176000,-0.0510895440395531
2024-06-27 15:32:06.180000,-0.0519135689434169
2024-06-27 15:32:06.184000,-0.0530122688152353
2024-06-27 15:32:06.188000,-0.0566746017212964
2024-06-27 15:32:06.192000,-0.0634499175975096
2024-06-27 15:32:06.196000,-0.0690349752792528
2024-06-27 15:32:06.200000,-0.0676616004394799
2024-06-27 15:32:06.204000,-0.0605200512726606
2024-06-27 15:32:06.208000,-0.0542025270097051
2024-06-27 15:32:06.212000,-0.0512726606848562
2024-06-27 15:32:06.216000,-0.0479765610694012
2024-06-27 15:32:06.220000,-0.0409265702252334
2024-06-27 15:32:06.224000,-0.0322285295733382
2024-06-27 15:32:06.228000,-0.0243545138253067
2024-06-27 15:32:06.232000,-0.0182201062076542
2024-06-27 15:32:06.236000,-0.0170298480131843
2024-06-27 15:32:06.240000,-0.0217908807910639
2024-06-27 15:32:06.244000,-0.0281084050540194
2024-06-27 15:32:06.248000,-0.0323200878959897
2024-06-27 15:32:06.252000,-0.0340596960263687
2024-06-27 15:32:06.256000,-0.0343343709943233
2024-06-27 15:32:06.260000,-0.0345174876396264
2024-06-27 15:32:06.264000,-0.0361655374473539
2024-06-27 15:32:06.268000,-0.0395531953854605
2024-06-27 15:32:06.272000,-0.0429408533235671
2024-06-27 15:32:06.276000,-0.0421168284197033
2024-06-27 15:32:06.280000,-0.0352499542208386
2024-06-27 15:32:06.284000,-0.0261856802783373
2024-06-27 15:32:06.288000,-0.0173045229811389
2024-06-27 15:32:06.292000,-0.0073246658121223
2024-06-27 15:32:06.296000,0.0026551913568943
2024-06-27 15:32:06.300000,0.0096136238784105
2024-06-27 15:32:06.304000,0.0132759567844717
2024-06-27 15:32:06.308000,0.0167551730452298
2024-06-27 15:32:06.312000,0.02215711408167
2024-06-27 15:32:06.316000,0.0265519135689434
2024-06-27 15:32:06.320000,0.0214246475004577
2024-06-27 15:32:06.324000,0.0011902581944698
2024-06-27 15:32:06.328000,-0.027009705182201
2024-06-27 15:32:06.332000,-0.0467863028749313
2024-06-27 15:32:06.336000,-0.0488921442959165
2024-06-27 15:32:06.340000,-0.0379967039003845
2024-06-27 15:32:06.344000,-0.0249038637612158
2024-06-27 15:32:06.348000,-0.0138253067203808
2024-06-27 15:32:06.352000,-0.0025636330342428
2024-06-27 15:32:06.356000,0.0069584325215162
2024-06-27 15:32:06.360000,0.0105292071049258
2024-06-27 15:32:06.364000,0.0088811572971983
2024-06-27 15:32:06.368000,0.0059512909723493
2024-06-27 15:32:06.372000,0.0043032411646218
2024-06-27 15:32:06.376000,0.0035707745834096
2024-06-27 15:32:06.380000,0.0004577916132576
2024-06-27 15:32:06.384000,-0.0063175242629555
2024-06-27 15:32:06.388000,-0.0117194652993957
2024-06-27 15:32:06.392000,-0.0088811572971983
2024-06-27 15:32:06.396000,0.000183116645303
2024-06-27 15:32:06.400000,0.0072331074894707
2024-06-27 15:32:06.404000,0.0097967405237136
2024-06-27 15:32:06.408000,0.0118110236220472
2024-06-27 15:32:06.412000,0.015931148141366
2024-06-27 15:32:06.416000,0.0204175059512909
2024-06-27 15:32:06.420000,0.0224317890496246
2024-06-27 15:32:06.424000,0.0222486724043215
2024-06-27 15:32:06.428000,0.0217908807910639
2024-06-27 15:32:06.432000,0.0215162058231093
2024-06-27 15:32:06.436000,0.0195934810474272
2024-06-27 15:32:06.440000,0.0123603735579564
2024-06-27 15:32:06.444000,-0.0027467496795458
2024-06-27 15:32:06.448000,-0.0212415308551547
2024-06-27 15:32:06.452000,-0.0342428126716718
2024-06-27 15:32:06.456000,-0.037905145577733
2024-06-27 15:32:06.460000,-0.0357077458340963
2024-06-27 15:32:06.464000,-0.0322285295733382
2024-06-27 15:32:06.468000,-0.0307635964109137
2024-06-27 15:32:06.472000,-0.0351583958981871
2024-06-27 15:32:06.476000,-0.0472440944881889
2024-06-27 15:32:06.480000,-0.0629921259842519
2024-06-27 15:32:06.484000,-0.0733382164438747
2024-06-27 15:32:06.488000,-0.0619849844350851
2024-06-27 15:32:06.492000,-0.0121772569126533
2024-06-27 15:32:06.496000,0.0726057498626625
2024-06-27 15:32:06.500000,0.1725874381981322
2024-06-27 15:32:06.504000,0.2619483611060245
2024-06-27 15:32:06.508000,0.3177989379234572
2024-06-27 15:32:06.512000,0.3272294451565647
2024-06-27 15:32:06.516000,0.2814502838308002
2024-06-27 15:32:06.520000,0.1828419703351034
2024-06-27 15:32:06.524000,0.053836293719099
2024-06-27 15:32:06.528000,-0.0767258743819813
2024-06-27 15:32:06.532000,-0.1820179454312397
2024-06-27 15:32:06.536000,-0.239699688701703
2024-06-27 15:32:06.540000,-0.2433620216077641
2024-06-27 15:32:06.544000,-0.2136971250686687
2024-06-27 15:32:06.548000,-0.1778062625892693
2024-06-27 15:32:06.552000,-0.1383446255264603
2024-06-27 15:32:06.556000,-0.0958615638161509
2024-06-27 15:32:06.560000,-0.0634499175975096
2024-06-27 15:32:06.564000,-0.0448635780992492
2024-06-27 15:32:06.568000,-0.0347006042849295
2024-06-27 15:32:06.572000,-0.0302142464750045
2024-06-27 15:32:06.576000,-0.0287493133125801
2024-06-27 15:32:06.580000,-0.0264603552462918
2024-06-27 15:32:06.584000,-0.0193188060794726
2024-06-27 15:32:06.588000,-0.0051272660684856
2024-06-27 15:32:06.592000,0.0118110236220472
2024-06-27 15:32:06.596000,0.0225233473722761
2024-06-27 15:32:06.600000,0.0227980223402307
2024-06-27 15:32:06.604000,0.0165720563999267
2024-06-27 15:32:06.608000,0.009705182201062
2024-06-27 15:32:06.612000,0.0056766160043947
2024-06-27 15:32:06.616000,0.0054019410364402
2024-06-27 15:32:06.620000,0.0076908991027284
2024-06-27 15:32:06.624000,0.0118110236220472
2024-06-27 15:32:06.628000,0.0178538729170481
2024-06-27 15:32:06.632000,0.0253616553744735
2024-06-27 15:32:06.636000,0.0311298297015198
2024-06-27 15:32:06.640000,0.0331441127998535
2024-06-27 15:32:06.644000,0.0325032045412928
2024-06-27 15:32:06.648000,0.0308551547335652
2024-06-27 15:32:06.652000,0.0300311298297015
2024-06-27 15:32:06.656000,0.0327778795092473
2024-06-27 15:32:06.660000,0.0412928035158395
2024-06-27 15:32:06.664000,0.0530122688152353
2024-06-27 15:32:06.668000,0.0615271928218275
2024-06-27 15:32:06.672000,0.0635414759201611
2024-06-27 15:32:06.676000,0.0606116095953122
2024-06-27 15:32:06.680000,0.0565830433986449
2024-06-27 15:32:06.684000,0.053836293719099
2024-06-27 15:32:06.688000,0.0528291521699322
2024-06-27 15:32:06.692000,0.0524629188793261
2024-06-27 15:32:06.696000,0.0519135689434169
2024-06-27 15:32:06.700000,0.0510895440395531
2024-06-27 15:32:06.704000,0.0503570774583409
2024-06-27 15:32:06.708000,0.050540194103644
2024-06-27 15:32:06.712000,0.0528291521699322
2024-06-27 15:32:06.716000,0.0568577183665995
2024-06-27 15:32:06.720000,0.0605200512726606
2024-06-27 15:32:06.724000,0.0621681010803882
2024-06-27 15:32:06.728000,0.0622596594030397
2024-06-27 15:32:06.732000,0.0639992675334188
2024-06-27 15:32:06.736000,0.0738875663797839
2024-06-27 15:32:06.740000,0.0967771470426661
2024-06-27 15:32:06.744000,0.1269913935176707
2024-06-27 15:32:06.748000,0.1519868156015381
2024-06-27 15:32:06.752000,0.1649880974180553
2024-06-27 15:32:06.756000,0.1691997802600256
2024-06-27 15:32:06.760000,0.1702069218091924
2024-06-27 15:32:06.764000,0.1705731550997985
2024-06-27 15:32:06.768000,0.1693828969053287
2024-06-27 15:32:06.772000,0.1631569309650247
2024-06-27 15:32:06.776000,0.1493316242446438
2024-06-27 15:32:06.780000,0.1322102179088079
2024-06-27 15:32:06.784000,0.1200329609961545
2024-06-27 15:32:06.788000,0.1125251785387291
2024-06-27 15:32:06.792000,0.1001648049807727
2024-06-27 15:32:06.796000,0.0766343160593298
2024-06-27 15:32:06.800000,0.0451382530672038
2024-06-27 15:32:06.804000,0.0124519318806079
2024-06-27 15:32:06.808000,-0.0166636147225782
2024-06-27 15:32:06.812000,-0.0376304706097784
2024-06-27 15:32:06.816000,-0.0466031862296282
2024-06-27 15:32:06.820000,-0.045870719648416
2024-06-27 15:32:06.824000,-0.0432155282915217
2024-06-27 15:32:06.828000,-0.0438564365500824
2024-06-27 15:32:06.832000,-0.0460538362937191
2024-06-27 15:32:06.836000,-0.0457791613257645
2024-06-27 15:32:06.840000,-0.0429408533235671
2024-06-27 15:32:06.844000,-0.041018128547885
2024-06-27 15:32:06.848000,-0.0424830617103094
2024-06-27 15:32:06.852000,-0.0451382530672038
2024-06-27 15:32:06.856000,-0.0449551364219007
2024-06-27 15:32:06.860000,-0.0404687786119758
2024-06-27 15:32:06.864000,-0.0341512543490203
2024-06-27 15:32:06.868000,-0.0303058047976561
2024-06-27 15:32:06.872000,-0.0292071049258377
2024-06-27 15:32:06.876000,-0.0260025636330342
2024-06-27 15:32:06.880000,-0.0160227064640175
2024-06-27 15:32:06.884000,-0.0007324665812122
2024-06-27 15:32:06.888000,0.0140999816883354
2024-06-27 15:32:06.892000,0.0227980223402307
2024-06-27 15:32:06.896000,0.020783739241897
2024-06-27 15:32:06.900000,0.0104376487822743
2024-06-27 15:32:06.904000,0.0003662332906061
2024-06-27 15:32:06.908000,-0.0052188243911371
2024-06-27 15:32:06.912000,-0.0088811572971983
2024-06-27 15:32:06.916000,-0.011261673686138
2024-06-27 15:32:06.920000,-0.0101629738143197
2024-06-27 15:32:06.924000,-0.0055850576817432
2024-06-27 15:32:06.928000,-0.0003662332906061
2024-06-27 15:32:06.932000,0.0030214246475004
2024-06-27 15:32:06.936000,0.0052188243911371
2024-06-27 15:32:06.940000,0.0077824574253799
2024-06-27 15:32:06.944000,0.0104376487822743
2024-06-27 15:32:06.948000,0.0119941402673503
2024-06-27 15:32:06.952000,0.012635048525911
2024-06-27 15:32:06.956000,0.0153817982054568
2024-06-27 15:32:06.960000,0.0232558139534883
2024-06-27 15:32:06.964000,0.0342428126716718
2024-06-27 15:32:06.968000,0.0425746200329609
2024-06-27 15:32:06.972000,0.0445889031312946
2024-06-27 15:32:06.976000,0.0402856619666727
2024-06-27 15:32:06.980000,0.0289324299578831
2024-06-27 15:32:06.984000,0.0071415491668192
2024-06-27 15:32:06.988000,-0.0214246475004577
2024-06-27 15:32:06.992000,-0.042757736678264
2024-06-27 15:32:06.996000,-0.0442226698406885
2024-06-27 15:32:07.000000,-0.0255447720197765
2024-06-27 15:32:07.004000,0.0009155832265152
2024-06-27 15:32:07.008000,0.0195934810474272
2024-06-27 15:32:07.012000,0.0249038637612158
2024-06-27 15:32:07.016000,0.0225233473722761
2024-06-27 15:32:07.020000,0.0197765976927302
2024-06-27 15:32:07.024000,0.0189525727888665
2024-06-27 15:32:07.028000,0.0178538729170481
2024-06-27 15:32:07.032000,0.0118110236220472
2024-06-27 15:32:07.036000,-0.0028383080021973
2024-06-27 15:32:07.040000,-0.0234389305987914
2024-06-27 15:32:07.044000,-0.0411096868705365
2024-06-27 15:32:07.048000,-0.0509064273942501
2024-06-27 15:32:07.052000,-0.0539278520417505
2024-06-27 15:32:07.056000,-0.0530122688152353
2024-06-27 15:32:07.060000,-0.050540194103644
2024-06-27 15:32:07.064000,-0.0481596777147042
2024-06-27 15:32:07.068000,-0.0463285112616736
2024-06-27 15:32:07.072000,-0.0445889031312946
2024-06-27 15:32:07.076000,-0.0428492950009155
2024-06-27 15:32:07.080000,-0.0415674784837941
2024-06-27 15:32:07.084000,-0.0400109869987181
2024-06-27 15:32:07.088000,-0.0383629371909906
2024-06-27 15:32:07.092000,-0.0379967039003845
2024-06-27 15:32:07.096000,-0.0398278703534151
2024-06-27 15:32:07.100000,-0.0426661783556125
2024-06-27 15:32:07.104000,-0.0441311115180369
2024-06-27 15:32:07.108000,-0.0437648782274308
2024-06-27 15:32:07.112000,-0.0432155282915217
2024-06-27 15:32:07.116000,-0.0433986449368247
2024-06-27 15:32:07.120000,-0.0421168284197033
2024-06-27 15:32:07.124000,-0.0368980040285661
2024-06-27 15:32:07.128000,-0.0282915216993224
2024-06-27 15:32:07.132000,-0.0191356894341695
2024-06-27 15:32:07.136000,-0.0129097234938655
2024-06-27 15:32:07.140000,-0.009705182201062
2024-06-27 15:32:07.144000,-0.0076908991027284
2024-06-27 15:32:07.148000,-0.006409082585607
2024-06-27 15:32:07.152000,-0.0086064823292437
2024-06-27 15:32:07.156000,-0.0155649148507599
2024-06-27 15:32:07.160000,-0.0242629555026551
2024-06-27 15:32:07.164000,-0.0326863211865958
2024-06-27 15:32:07.168000,-0.0422999450650064
2024-06-27 15:32:07.172000,-0.0506317524262955
2024-06-27 15:32:07.176000,-0.0518220106207654
2024-06-27 15:32:07.180000,-0.0448635780992492
2024-06-27 15:32:07.184000,-0.0343343709943233
2024-06-27 15:32:07.188000,-0.0255447720197765
2024-06-27 15:32:07.192000,-0.019227247756821
2024-06-27 15:32:07.196000,-0.0130928401391686
2024-06-27 15:32:07.200000,-0.0060428492950009
2024-06-27 15:32:07.204000,0.000183116645303
2024-06-27 15:32:07.208000,0.0039370078740157
2024-06-27 15:32:07.212000,0.0042116828419703
2024-06-27 15:32:07.216000,0.0014649331624244
2024-06-27 15:32:07.220000,-0.0034792162607581
2024-06-27 15:32:07.224000,-0.0103460904596227
2024-06-27 15:32:07.228000,-0.0162058231093206
2024-06-27 15:32:07.232000,-0.0166636147225782
2024-06-27 15:32:07.236000,-0.0113532320087895
2024-06-27 15:32:07.240000,-0.0027467496795458
2024-06-27 15:32:07.244000,0.0073246658121223
2024-06-27 15:32:07.248000,0.0151986815601538
2024-06-27 15:32:07.252000,0.0184947811756088
2024-06-27 15:32:07.256000,0.020783739241897
2024-06-27 15:32:07.260000,0.027009705182201
2024-06-27 15:32:07.264000,0.0358908624793993
2024-06-27 15:32:07.268000,0.0422083867423548
2024-06-27 15:32:07.272000,0.04431422816334
2024-06-27 15:32:07.276000,0.0459622779710675
2024-06-27 15:32:07.280000,0.0512726606848562
2024-06-27 15:32:07.284000,0.0595129097234938
2024-06-27 15:32:07.288000,0.0657388756637978
2024-06-27 15:32:07.292000,0.06647134224501
2024-06-27 15:32:07.296000,0.0615271928218275
2024-06-27 15:32:07.300000,0.0512726606848562
2024-06-27 15:32:07.304000,0.0341512543490203
2024-06-27 15:32:07.308000,0.0125434902032594
2024-06-27 15:32:07.312000,-0.0037538912287126
2024-06-27 15:32:07.316000,-0.0090642739425013
2024-06-27 15:32:07.320000,-0.0071415491668192
2024-06-27 15:32:07.324000,-0.0046694744552279
2024-06-27 15:32:07.328000,-0.0080571323933345
2024-06-27 15:32:07.332000,-0.022340230726973
2024-06-27 15:32:07.336000,-0.0457791613257645
2024-06-27 15:32:07.340000,-0.0652810840505402
2024-06-27 15:32:07.344000,-0.0689434169566013
2024-06-27 15:32:07.348000,-0.053653177073796
2024-06-27 15:32:07.352000,-0.0184032228529573
2024-06-27 15:32:07.356000,0.0348837209302325
2024-06-27 15:32:07.360000,0.1015381798205457
2024-06-27 15:32:07.364000,0.176707562717451
2024-06-27 15:32:07.368000,0.2520600622596594
2024-06-27 15:32:07.372000,0.3138619300494415
2024-06-27 15:32:07.376000,0.3405969602636879
2024-06-27 15:32:07.380000,0.3066288225599707
2024-06-27 15:32:07.384000,0.2060977842885918
2024-06-27 15:32:07.388000,0.0635414759201611
2024-06-27 15:32:07.392000,-0.0856070316791796
2024-06-27 15:32:07.396000,-0.2091192089360923
2024-06-27 15:32:07.400000,-0.2789782091192089
2024-06-27 15:32:07.404000,-0.2896905328694378
2024-06-27 15:32:07.408000,-0.2605749862662516
2024-06-27 15:32:07.412000,-0.2092107672587438
2024-06-27 15:32:07.416000,-0.1495147408899469
2024-06-27 15:32:07.420000,-0.1006225965940304
2024-06-27 15:32:07.424000,-0.0741622413477385
2024-06-27 15:32:07.428000,-0.0646401757919794
2024-06-27 15:32:07.432000,-0.0606116095953122
2024-06-27 15:32:07.436000,-0.0573155099798571
2024-06-27 15:32:07.440000,-0.0563999267533418
2024-06-27 15:32:07.444000,-0.0587804431422816
2024-06-27 15:32:07.448000,-0.0602453763047061
2024-06-27 15:32:07.452000,-0.0553012268815235
2024-06-27 15:32:07.456000,-0.0440395531953854
2024-06-27 15:32:07.460000,-0.0330525544772019
2024-06-27 15:32:07.464000,-0.0276506134407617
2024-06-27 15:32:07.468000,-0.0269181468595495
2024-06-27 15:32:07.472000,-0.0275590551181102
2024-06-27 15:32:07.476000,-0.0269181468595495
2024-06-27 15:32:07.480000,-0.0228895806628822
2024-06-27 15:32:07.484000,-0.0147408899468961
2024-06-27 15:32:07.488000,-0.0052188243911371
2024-06-27 15:32:07.492000,0.000183116645303
2024-06-27 15:32:07.496000,-0.0004577916132576
2024-06-27 15:32:07.500000,-0.0043947994872733
2024-06-27 15:32:07.504000,-0.007965574070683
2024-06-27 15:32:07.508000,-0.0108038820728804
2024-06-27 15:32:07.512000,-0.012635048525911
2024-06-27 15:32:07.516000,-0.012818165171214
2024-06-27 15:32:07.520000,-0.0105292071049258
2024-06-27 15:32:07.524000,-0.0056766160043947
2024-06-27 15:32:07.528000,0.0014649331624244
2024-06-27 15:32:07.532000,0.0102545321369712
2024-06-27 15:32:07.536000,0.0177623145943966
2024-06-27 15:32:07.540000,0.0214246475004577
2024-06-27 15:32:07.544000,0.022340230726973
2024-06-27 15:32:07.548000,0.0249038637612158
2024-06-27 15:32:07.552000,0.0314960629921259
2024-06-27 15:32:07.556000,0.0391869620948544
2024-06-27 15:32:07.560000,0.0451382530672038
2024-06-27 15:32:07.564000,0.0509979857169016
2024-06-27 15:32:07.568000,0.0601538179820545
2024-06-27 15:32:07.572000,0.0744369163156931
2024-06-27 15:32:07.576000,0.0914667643288775
2024-06-27 15:32:07.580000,0.1077641457608496
2024-06-27 15:32:07.584000,0.1233290606116096
2024-06-27 15:32:07.588000,0.1383446255264603
2024-06-27 15:32:07.592000,0.1509796740523713
2024-06-27 15:32:07.596000,0.1602270646401758
2024-06-27 15:32:07.600000,0.1665445889031312
2024-06-27 15:32:07.604000,0.1709393883904046
2024-06-27 15:32:07.608000,0.1746017212964658
2024-06-27 15:32:07.612000,0.1794543123969968
2024-06-27 15:32:07.616000,0.1865958615638161
2024-06-27 15:32:07.620000,0.1919978026002563
2024-06-27 15:32:07.624000,0.1918146859549533
2024-06-27 15:32:07.628000,0.1880607947262406
2024-06-27 15:32:07.632000,0.1841237868522248
2024-06-27 15:32:07.636000,0.1800952206555575
2024-06-27 15:32:07.640000,0.1732283464566929
2024-06-27 15:32:07.644000,0.1607764145760849
2024-06-27 15:32:07.648000,0.1399926753341878
2024-06-27 15:32:07.652000,0.1099615455044863
2024-06-27 15:32:07.656000,0.0756271745101629
2024-06-27 15:32:07.660000,0.0462369529390221
2024-06-27 15:32:07.664000,0.0246291887932613
2024-06-27 15:32:07.668000,0.007965574070683
2024-06-27 15:32:07.672000,-0.004852591100531
2024-06-27 15:32:07.676000,-0.0154733565281084
2024-06-27 15:32:07.680000,-0.0266434718915949
2024-06-27 15:32:07.684000,-0.0397363120307635
2024-06-27 15:32:07.688000,-0.0520051272660684
2024-06-27 15:32:07.692000,-0.0590551181102362
2024-06-27 15:32:07.696000,-0.0608862845632668
2024-06-27 15:32:07.700000,-0.0617103094671305
2024-06-27 15:32:07.704000,-0.0646401757919794
2024-06-27 15:32:07.708000,-0.0704083501190258
2024-06-27 15:32:07.712000,-0.0770005493499359
2024-06-27 15:32:07.716000,-0.0814869071598608
2024-06-27 15:32:07.720000,-0.0829518403222853
2024-06-27 15:32:07.724000,-0.0828602819996337
2024-06-27 15:32:07.728000,-0.0824940487090276
2024-06-27 15:32:07.732000,-0.0819446987731184
2024-06-27 15:32:07.736000,-0.080662882255997
2024-06-27 15:32:07.740000,-0.0782823658670573
2024-06-27 15:32:07.744000,-0.0747115912836476
2024-06-27 15:32:07.748000,-0.0704083501190258
2024-06-27 15:32:07.752000,-0.0652810840505402
2024-06-27 15:32:07.756000,-0.0599707013367515
2024-06-27 15:32:07.760000,-0.0591466764328877
2024-06-27 15:32:07.764000,-0.0641823841787218
2024-06-27 15:32:07.768000,-0.0672038088262223
2024-06-27 15:32:07.772000,-0.0635414759201611
2024-06-27 15:32:07.776000,-0.0590551181102362
2024-06-27 15:32:07.780000,-0.0588720014649331
2024-06-27 15:32:07.784000,-0.0604284929500091
2024-06-27 15:32:07.788000,-0.0613440761765244
2024-06-27 15:32:07.792000,-0.0611609595312213
2024-06-27 15:32:07.796000,-0.0603369346273576
2024-06-27 15:32:07.800000,-0.0599707013367515
2024-06-27 15:32:07.804000,-0.0626258926936458
2024-06-27 15:32:07.808000,-0.0699505585057681
2024-06-27 15:32:07.812000,-0.0792895074162241
2024-06-27 15:32:07.816000,-0.0843252151620582
2024-06-27 15:32:07.820000,-0.0813953488372093
2024-06-27 15:32:07.824000,-0.0733382164438747
2024-06-27 15:32:07.828000,-0.0657388756637978
2024-06-27 15:32:07.832000,-0.0601538179820545
2024-06-27 15:32:07.836000,-0.0540194103644021
2024-06-27 15:32:07.840000,-0.0460538362937191
2024-06-27 15:32:07.844000,-0.0366233290606116
2024-06-27 15:32:07.848000,-0.0271928218275041
2024-06-27 15:32:07.852000,-0.020783739241897
2024-06-27 15:32:07.856000,-0.0184947811756088
2024-06-27 15:32:07.860000,-0.0185863394982603
2024-06-27 15:32:07.864000,-0.0200512726606848
2024-06-27 15:32:07.868000,-0.0233473722761399
2024-06-27 15:32:07.872000,-0.0283830800219739
2024-06-27 15:32:07.876000,-0.0348837209302325
2024-06-27 15:32:07.880000,-0.0426661783556125
2024-06-27 15:32:07.884000,-0.050723310748947
2024-06-27 15:32:07.888000,-0.0563999267533418
2024-06-27 15:32:07.892000,-0.0581395348837209
2024-06-27 15:32:07.896000,-0.0557590184947811
2024-06-27 15:32:07.900000,-0.049166819263871
2024-06-27 15:32:07.904000,-0.0405603369346273
2024-06-27 15:32:07.908000,-0.0343343709943233
2024-06-27 15:32:07.912000,-0.0320454129280351
2024-06-27 15:32:07.916000,-0.0320454129280351
2024-06-27 15:32:07.920000,-0.0335103460904596
2024-06-27 15:32:07.924000,-0.0371726789965207
2024-06-27 15:32:07.928000,-0.0425746200329609
2024-06-27 15:32:07.932000,-0.047610327778795
2024-06-27 15:32:07.936000,-0.0502655191356894
2024-06-27 15:32:07.940000,-0.0509979857169016
2024-06-27 15:32:07.944000,-0.0516388939754623
2024-06-27 15:32:07.948000,-0.0523713605566746
2024-06-27 15:32:07.952000,-0.0521882439113715
2024-06-27 15:32:07.956000,-0.0508148690715986
2024-06-27 15:32:07.960000,-0.0485259110053103
2024-06-27 15:32:07.964000,-0.0473356528108405
2024-06-27 15:32:07.968000,-0.0492583775865226
2024-06-27 15:32:07.972000,-0.0534700604284929
2024-06-27 15:32:07.976000,-0.0572239516572056
2024-06-27 15:32:07.980000,-0.0582310932063724
2024-06-27 15:32:07.984000,-0.0561252517853872
2024-06-27 15:32:07.988000,-0.0530122688152353
2024-06-27 15:32:07.992000,-0.0501739608130379
2024-06-27 15:32:07.996000,-0.0471525361655374
2024-06-27 15:32:08.000000,-0.0445889031312946
2024-06-27 15:32:08.004000,-0.0434902032594762
2024-06-27 15:32:08.008000,-0.0436733199047793
2024-06-27 15:32:08.012000,-0.04431422816334
2024-06-27 15:32:08.016000,-0.0447720197765976
2024-06-27 15:32:08.020000,-0.0438564365500824
2024-06-27 15:32:08.024000,-0.0407434535799304
2024-06-27 15:32:08.028000,-0.0364402124153085
2024-06-27 15:32:08.032000,-0.0343343709943233
2024-06-27 15:32:08.036000,-0.0381798205456876
2024-06-27 15:32:08.040000,-0.0472440944881889
2024-06-27 15:32:08.044000,-0.0542940853323567
2024-06-27 15:32:08.048000,-0.0537447353964475
2024-06-27 15:32:08.052000,-0.0484343526826588
2024-06-27 15:32:08.056000,-0.042757736678264
2024-06-27 15:32:08.060000,-0.0379967039003845
2024-06-27 15:32:08.064000,-0.0336019044131111
2024-06-27 15:32:08.068000,-0.0281084050540194
2024-06-27 15:32:08.072000,-0.0230726973081853
2024-06-27 15:32:08.076000,-0.0208752975645486
2024-06-27 15:32:08.080000,-0.0215162058231093
2024-06-27 15:32:08.084000,-0.0234389305987914
2024-06-27 15:32:08.088000,-0.0250869804065189
2024-06-27 15:32:08.092000,-0.0260025636330342
2024-06-27 15:32:08.096000,-0.0260941219556857
2024-06-27 15:32:08.100000,-0.0262772386009888
2024-06-27 15:32:08.104000,-0.027009705182201
2024-06-27 15:32:08.108000,-0.0280168467313678
2024-06-27 15:32:08.112000,-0.026826588536898
2024-06-27 15:32:08.116000,-0.0195934810474272
2024-06-27 15:32:08.120000,-0.0042116828419703
2024-06-27 15:32:08.124000,0.0166636147225782
2024-06-27 15:32:08.128000,0.0354330708661417
2024-06-27 15:32:08.132000,0.042757736678264
2024-06-27 15:32:08.136000,0.0378135872550814
2024-06-27 15:32:08.140000,0.0287493133125801
2024-06-27 15:32:08.144000,0.023713605566746
2024-06-27 15:32:08.148000,0.023896722212049
2024-06-27 15:32:08.152000,0.0255447720197765
2024-06-27 15:32:08.156000,0.0249954220838674
2024-06-27 15:32:08.160000,0.0211499725325032
2024-06-27 15:32:08.164000,0.0155649148507599
2024-06-27 15:32:08.168000,0.011078557040835
2024-06-27 15:32:08.172000,0.0087895989745467
2024-06-27 15:32:08.176000,0.0057681743270463
2024-06-27 15:32:08.180000,-0.0012818165171214
2024-06-27 15:32:08.184000,-0.0123603735579564
2024-06-27 15:32:08.188000,-0.0240798388573521
2024-06-27 15:32:08.192000,-0.0324116462186412
2024-06-27 15:32:08.196000,-0.034975279252884
2024-06-27 15:32:08.200000,-0.0327778795092473
2024-06-27 15:32:08.204000,-0.0336934627357626
2024-06-27 15:32:08.208000,-0.0455044863578099
2024-06-27 15:32:08.212000,-0.0592382347555392
2024-06-27 15:32:08.216000,-0.055209668558872
2024-06-27 15:32:08.220000,-0.0209668558872001
2024-06-27 15:32:08.224000,0.0517304522981139
2024-06-27 15:32:08.228000,0.15629005676616
2024-06-27 15:32:08.232000,0.2586522614905694
2024-06-27 15:32:08.236000,0.3243911371543673
2024-06-27 15:32:08.240000,0.3388573521333089
2024-06-27 15:32:08.244000,0.3026918146859549
2024-06-27 15:32:08.248000,0.2263321735945797
2024-06-27 15:32:08.252000,0.1229628273210034
2024-06-27 15:32:08.256000,-0.0004577916132576
2024-06-27 15:32:08.260000,-0.1361472257828236
2024-06-27 15:32:08.264000,-0.2532503204541292
2024-06-27 15:32:08.268000,-0.3107489470792895
2024-06-27 15:32:08.272000,-0.2944515656473173
2024-06-27 15:32:08.276000,-0.2232191906244277
2024-06-27 15:32:08.280000,-0.1377952755905512
2024-06-27 15:32:08.284000,-0.0770005493499359
2024-06-27 15:32:08.288000,-0.0520051272660684
2024-06-27 15:32:08.292000,-0.0493499359091741
2024-06-27 15:32:08.296000,-0.0473356528108405
2024-06-27 15:32:08.300000,-0.0357993041567478
2024-06-27 15:32:08.304000,-0.0202343893059879
2024-06-27 15:32:08.308000,-0.0080571323933345
2024-06-27 15:32:08.312000,-0.0029298663248489
2024-06-27 15:32:08.316000,-0.0043947994872733
2024-06-27 15:32:08.320000,-0.0086980406518952
2024-06-27 15:32:08.324000,-0.0117194652993957
2024-06-27 15:32:08.328000,-0.0102545321369712
2024-06-27 15:32:08.332000,-0.0035707745834096
2024-06-27 15:32:08.336000,0.0070499908441677
2024-06-27 15:32:08.340000,0.0226149056949276
2024-06-27 15:32:08.344000,0.041201245193188
2024-06-27 15:32:08.348000,0.0550265519135689
2024-06-27 15:32:08.352000,0.060062259659403
2024-06-27 15:32:08.356000,0.0596960263687969
2024-06-27 15:32:08.360000,0.0574986266251602
2024-06-27 15:32:08.364000,0.053836293719099
2024-06-27 15:32:08.368000,0.0486174693279619
2024-06-27 15:32:08.372000,0.0440395531953854
2024-06-27 15:32:08.376000,0.0428492950009155
2024-06-27 15:32:08.380000,0.0452298113898553
2024-06-27 15:32:08.384000,0.050540194103644
2024-06-27 15:32:08.388000,0.0594213514008423
2024-06-27 15:32:08.392000,0.0704083501190258
2024-06-27 15:32:08.396000,0.078923274125618
2024-06-27 15:32:08.400000,0.0821278154184215
2024-06-27 15:32:08.404000,0.0819446987731184
2024-06-27 15:32:08.408000,0.0818531404504669
2024-06-27 15:32:08.412000,0.0856070316791796
2024-06-27 15:32:08.416000,0.0958615638161509
2024-06-27 15:32:08.420000,0.1106940120856986
2024-06-27 15:32:08.424000,0.1235121772569126
2024-06-27 15:32:08.428000,0.1291887932613074
2024-06-27 15:32:08.432000,0.1279985350668376
2024-06-27 15:32:08.436000,0.1253433437099432
2024-06-27 15:32:08.440000,0.1268998351950192
2024-06-27 15:32:08.444000,0.134316059329793
2024-06-27 15:32:08.448000,0.1464017579197949
2024-06-27 15:32:08.452000,0.1598608313495697
2024-06-27 15:32:08.456000,0.172038088262223
2024-06-27 15:32:08.460000,0.1845815784654825
2024-06-27 15:32:08.464000,0.2017029848013184
2024-06-27 15:32:08.468000,0.2211133492034425
2024-06-27 15:32:08.472000,0.2354880058597326
2024-06-27 15:32:08.476000,0.2423548800585973
2024-06-27 15:32:08.480000,0.2449185130928401
2024-06-27 15:32:08.484000,0.2470243545138253
2024-06-27 15:32:08.488000,0.2491301959348104
2024-06-27 15:32:08.492000,0.2477568210950375
2024-06-27 15:32:08.496000,0.2378685222486724
2024-06-27 15:32:08.500000,0.2188243911371543
2024-06-27 15:32:08.504000,0.1961179271195751
2024-06-27 15:32:08.508000,0.1760666544588903
2024-06-27 15:32:08.512000,0.1580296648965391
2024-06-27 15:32:08.516000,0.1409082585607031
2024-06-27 15:32:08.520000,0.1287310016480498
2024-06-27 15:32:08.524000,0.121681010803882
2024-06-27 15:32:08.528000,0.1139901117011536
2024-06-27 15:32:08.532000,0.1019044131111518
2024-06-27 15:32:08.536000,0.0870719648416041
2024-06-27 15:32:08.540000,0.0726057498626625
2024-06-27 15:32:08.544000,0.0612525178538729
2024-06-27 15:32:08.548000,0.0557590184947811
2024-06-27 15:32:08.552000,0.0540194103644021
2024-06-27 15:32:08.556000,0.0480681193920527
2024-06-27 15:32:08.560000,0.0303058047976561
2024-06-27 15:32:08.564000,0.0056766160043947
2024-06-27 15:32:08.568000,-0.0125434902032594
2024-06-27 15:32:08.572000,-0.0185863394982603
2024-06-27 15:32:08.576000,-0.0175791979490935
2024-06-27 15:32:08.580000,-0.0155649148507599
2024-06-27 15:32:08.584000,-0.0141915400109869
2024-06-27 15:32:08.588000,-0.0130928401391686
2024-06-27 15:32:08.592000,-0.012635048525911
2024-06-27 15:32:08.596000,-0.0155649148507599
2024-06-27 15:32:08.600000,-0.0243545138253067
2024-06-27 15:32:08.604000,-0.0362570957700054
2024-06-27 15:32:08.608000,-0.0449551364219007
2024-06-27 15:32:08.612000,-0.0478850027467496
2024-06-27 15:32:08.616000,-0.0478850027467496
2024-06-27 15:32:08.620000,-0.0481596777147042
2024-06-27 15:32:08.624000,-0.049166819263871
2024-06-27 15:32:08.628000,-0.0497161691997802
2024-06-27 15:32:08.632000,-0.0498077275224317
2024-06-27 15:32:08.636000,-0.0519135689434169
2024-06-27 15:32:08.640000,-0.0585973264969785
2024-06-27 15:32:08.644000,-0.068027833730086
2024-06-27 15:32:08.648000,-0.0740706830250869
2024-06-27 15:32:08.652000,-0.0713239333455411
2024-06-27 15:32:08.656000,-0.0604284929500091
2024-06-27 15:32:08.660000,-0.0478850027467496
2024-06-27 15:32:08.664000,-0.0367148873832631
2024-06-27 15:32:08.668000,-0.0247207471159128
2024-06-27 15:32:08.672000,-0.0141915400109869
2024-06-27 15:32:08.676000,-0.009522065555759
2024-06-27 15:32:08.680000,-0.0096136238784105
2024-06-27 15:32:08.684000,-0.0113532320087895
2024-06-27 15:32:08.688000,-0.0140999816883354
2024-06-27 15:32:08.692000,-0.0195019227247756
2024-06-27 15:32:08.696000,-0.0281084050540194
2024-06-27 15:32:08.700000,-0.038088262223036
2024-06-27 15:32:08.704000,-0.0478850027467496
2024-06-27 15:32:08.708000,-0.0563999267533418
2024-06-27 15:32:08.712000,-0.0611609595312213
2024-06-27 15:32:08.716000,-0.0606116095953122
2024-06-27 15:32:08.720000,-0.0568577183665995
2024-06-27 15:32:08.724000,-0.0524629188793261
2024-06-27 15:32:08.728000,-0.0469694195202343
2024-06-27 15:32:08.732000,-0.0399194286760666
2024-06-27 15:32:08.736000,-0.0325032045412928
2024-06-27 15:32:08.740000,-0.0264603552462918
2024-06-27 15:32:08.744000,-0.0214246475004577
2024-06-27 15:32:08.748000,-0.0155649148507599
2024-06-27 15:32:08.752000,-0.009705182201062
2024-06-27 15:32:08.756000,-0.0061344076176524
2024-06-27 15:32:08.760000,-0.0046694744552279
2024-06-27 15:32:08.764000,-0.0031129829701519
2024-06-27 15:32:08.768000,0.0
2024-06-27 15:32:08.772000,0.0020142830983336
2024-06-27 15:32:08.776000,-0.0041201245193188
2024-06-27 15:32:08.780000,-0.0248123054385643
2024-06-27 15:32:08.784000,-0.0533785021058414
2024-06-27 15:32:08.788000,-0.0737044497344808
2024-06-27 15:32:08.792000,-0.0778245742537996
2024-06-27 15:32:08.796000,-0.070957700054935
2024-06-27 15:32:08.800000,-0.0625343343709943
2024-06-27 15:32:08.804000,-0.0559421351400842
2024-06-27 15:32:08.808000,-0.0494414942318256
2024-06-27 15:32:08.812000,-0.042757736678264
2024-06-27 15:32:08.816000,-0.0373557956418238
2024-06-27 15:32:08.820000,-0.033418787767808
2024-06-27 15:32:08.824000,-0.0313129463468229
2024-06-27 15:32:08.828000,-0.0309467130562168
2024-06-27 15:32:08.832000,-0.0306720380882622
2024-06-27 15:32:08.836000,-0.028566196667277
2024-06-27 15:32:08.840000,-0.0236220472440944
2024-06-27 15:32:08.844000,-0.0167551730452298
2024-06-27 15:32:08.848000,-0.0107123237502288
2024-06-27 15:32:08.852000,-0.0084233656839406
2024-06-27 15:32:08.856000,-0.0094305072331074
2024-06-27 15:32:08.860000,-0.0119025819446987
2024-06-27 15:32:08.864000,-0.0147408899468961
2024-06-27 15:32:08.868000,-0.0169382896905328
2024-06-27 15:32:08.872000,-0.0176707562717451
2024-06-27 15:32:08.876000,-0.0169382896905328
2024-06-27 15:32:08.880000,-0.0157480314960629
2024-06-27 15:32:08.884000,-0.0148324482695477
2024-06-27 15:32:08.888000,-0.0142830983336385
2024-06-27 15:32:08.892000,-0.0141915400109869
2024-06-27 15:32:08.896000,-0.0152902398828053
2024-06-27 15:32:08.900000,-0.0185863394982603
2024-06-27 15:32:08.904000,-0.0230726973081853
2024-06-27 15:32:08.908000,-0.0261856802783373
2024-06-27 15:32:08.912000,-0.0267350302142464
2024-06-27 15:32:08.916000,-0.0253616553744735
2024-06-27 15:32:08.920000,-0.0238051638893975
2024-06-27 15:32:08.924000,-0.0224317890496246
2024-06-27 15:32:08.928000,-0.0210584142098516
2024-06-27 15:32:08.932000,-0.0196850393700787
2024-06-27 15:32:08.936000,-0.019044131111518
2024-06-27 15:32:08.940000,-0.0194103644021241
2024-06-27 15:32:08.944000,-0.0206921809192455
2024-06-27 15:32:08.948000,-0.0214246475004577
2024-06-27 15:32:08.952000,-0.0169382896905328
2024-06-27 15:32:08.956000,-0.0029298663248489
2024-06-27 15:32:08.960000,0.0163889397546236
2024-06-27 15:32:08.964000,0.0307635964109137
2024-06-27 15:32:08.968000,0.033418787767808
2024-06-27 15:32:08.972000,0.025453213697125
2024-06-27 15:32:08.976000,0.0111701153634865
2024-06-27 15:32:08.980000,-0.0052188243911371
2024-06-27 15:32:08.984000,-0.020600622596594
2024-06-27 15:32:08.988000,-0.0321369712506866
2024-06-27 15:32:08.992000,-0.0381798205456876
2024-06-27 15:32:08.996000,-0.0401025453213697
2024-06-27 15:32:09.000000,-0.0406518952572788
2024-06-27 15:32:09.004000,-0.0414759201611426
2024-06-27 15:32:09.008000,-0.0422999450650064
2024-06-27 15:32:09.012000,-0.0421168284197033
2024-06-27 15:32:09.016000,-0.0397363120307635
2024-06-27 15:32:09.020000,-0.0350668375755356
2024-06-27 15:32:09.024000,-0.0314045046694744
2024-06-27 15:32:09.028000,-0.0381798205456876
2024-06-27 15:32:09.032000,-0.0635414759201611
2024-06-27 15:32:09.036000,-0.0916498809741805
2024-06-27 15:32:09.040000,-0.0862479399377403
2024-06-27 15:32:09.044000,-0.0230726973081853
2024-06-27 15:32:09.048000,0.0880791063907709
2024-06-27 15:32:09.052000,0.2073796008057132
2024-06-27 15:32:09.056000,0.2934444240981505
2024-06-27 15:32:09.060000,0.3270463285112617
2024-06-27 15:32:09.064000,0.3026918146859549
2024-06-27 15:32:09.068000,0.2207471159128364
2024-06-27 15:32:09.072000,0.0963193554294085
2024-06-27 15:32:09.076000,-0.0401941036440212
2024-06-27 15:32:09.080000,-0.1653543307086614
2024-06-27 15:32:09.084000,-0.257004211682842
2024-06-27 15:32:09.088000,-0.2876762497711042
2024-06-27 15:32:09.092000,-0.2604834279436001
2024-06-27 15:32:09.096000,-0.2087529756454861
2024-06-27 15:32:09.100000,-0.1589452481230543
2024-06-27 15:32:09.104000,-0.1258011353232009
2024-06-27 15:32:09.108000,-0.1107855704083501
2024-06-27 15:32:09.112000,-0.0999816883354696
2024-06-27 15:32:09.116000,-0.0813037905145577
2024-06-27 15:32:09.120000,-0.0577733015931148
2024-06-27 15:32:09.124000,-0.0403772202893243
2024-06-27 15:32:09.128000,-0.0336019044131111
2024-06-27 15:32:09.132000,-0.033418787767808
2024-06-27 15:32:09.136000,-0.0347006042849295
2024-06-27 15:32:09.140000,-0.0347006042849295
2024-06-27 15:32:09.144000,-0.0325947628639443
2024-06-27 15:32:09.148000,-0.0287493133125801
2024-06-27 15:32:09.152000,-0.025453213697125
2024-06-27 15:32:09.156000,-0.0242629555026551
2024-06-27 15:32:09.160000,-0.0243545138253067
2024-06-27 15:32:09.164000,-0.023713605566746
2024-06-27 15:32:09.168000,-0.0208752975645486
2024-06-27 15:32:09.172000,-0.0160227064640175
2024-06-27 15:32:09.176000,-0.0094305072331074
2024-06-27 15:32:09.180000,-0.0024720747115912
2024-06-27 15:32:09.184000,0.0013733748397729
2024-06-27 15:32:09.188000,-0.0005493499359091
2024-06-27 15:32:09.192000,-0.0067753158762131
2024-06-27 15:32:09.196000,-0.0115363486540926
2024-06-27 15:32:09.200000,-0.0144662149789415
2024-06-27 15:32:09.204000,-0.0184032228529573
2024-06-27 15:32:09.208000,-0.0195934810474272
2024-06-27 15:32:09.212000,-0.0109869987181834
2024-06-27 15:32:09.216000,0.0070499908441677
2024-06-27 15:32:09.220000,0.0269181468595495
2024-06-27 15:32:09.224000,0.0399194286760666
2024-06-27 15:32:09.228000,0.0434902032594762
2024-06-27 15:32:09.232000,0.0414759201611426
2024-06-27 15:32:09.236000,0.0383629371909906
2024-06-27 15:32:09.240000,0.036348654092657
2024-06-27 15:32:09.244000,0.0362570957700054
2024-06-27 15:32:09.248000,0.0391869620948544
2024-06-27 15:32:09.252000,0.0437648782274308
2024-06-27 15:32:09.256000,0.0468778611975828
2024-06-27 15:32:09.260000,0.0478850027467496
2024-06-27 15:32:09.264000,0.0510895440395531
2024-06-27 15:32:09.268000,0.061618751144479
2024-06-27 15:32:09.272000,0.0794726240615271
2024-06-27 15:32:09.276000,0.0988829884636513
2024-06-27 15:32:09.280000,0.1138985533785021
2024-06-27 15:32:09.284000,0.1209485442226698
2024-06-27 15:32:09.288000,0.1212232191906244
2024-06-27 15:32:09.292000,0.1203991942867606
2024-06-27 15:32:09.296000,0.1258926936458524
2024-06-27 15:32:09.300000,0.1423731917231276
2024-06-27 15:32:09.304000,0.1653543307086614
2024-06-27 15:32:09.308000,0.183116645303058
2024-06-27 15:32:09.312000,0.187786119758286
2024-06-27 15:32:09.316000,0.1828419703351034
2024-06-27 15:32:09.320000,0.175334187877678
2024-06-27 15:32:09.324000,0.1655374473539644
2024-06-27 15:32:09.328000,0.1479582494048709
2024-06-27 15:32:09.332000,0.1222303607397912
2024-06-27 15:32:09.336000,0.0969602636879692
2024-06-27 15:32:09.340000,0.0809375572239516
2024-06-27 15:32:09.344000,0.0725141915400109
2024-06-27 15:32:09.348000,0.063175242629555
2024-06-27 15:32:09.352000,0.0459622779710675
2024-06-27 15:32:09.356000,0.0191356894341695
2024-06-27 15:32:09.360000,-0.0093389489104559
2024-06-27 15:32:09.364000,-0.0287493133125801
2024-06-27 15:32:09.368000,-0.0361655374473539
2024-06-27 15:32:09.372000,-0.0374473539644753
2024-06-27 15:32:09.376000,-0.038088262223036
2024-06-27 15:32:09.380000,-0.0390038454495513
2024-06-27 15:32:09.384000,-0.0393700787401574
2024-06-27 15:32:09.388000,-0.0393700787401574
2024-06-27 15:32:09.392000,-0.039644753708112
2024-06-27 15:32:09.396000,-0.041201245193188
2024-06-27 15:32:09.400000,-0.0446804614539461
2024-06-27 15:32:09.404000,-0.0490752609412195
2024-06-27 15:32:09.408000,-0.0520051272660684
2024-06-27 15:32:09.412000,-0.0527375938472807
2024-06-27 15:32:09.416000,-0.0520051272660684
2024-06-27 15:32:09.420000,-0.0509064273942501
2024-06-27 15:32:09.424000,-0.0497161691997802
2024-06-27 15:32:09.428000,-0.049166819263871
2024-06-27 15:32:09.432000,-0.0509064273942501
2024-06-27 15:32:09.436000,-0.0570408350119025
2024-06-27 15:32:09.440000,-0.0688518586339498
2024-06-27 15:32:09.444000,-0.0823109320637246
2024-06-27 15:32:09.448000,-0.0899102728438015
2024-06-27 15:32:09.452000,-0.0876213147775132
2024-06-27 15:32:09.456000,-0.0777330159311481
2024-06-27 15:32:09.460000,-0.0661966672770554
2024-06-27 15:32:09.464000,-0.0582310932063724
2024-06-27 15:32:09.468000,-0.053653177073796
2024-06-27 15:32:09.472000,-0.0478850027467496
2024-06-27 15:32:09.476000,-0.0381798205456876
2024-06-27 15:32:09.480000,-0.0277421717634132
2024-06-27 15:32:09.484000,-0.0227064640175791
2024-06-27 15:32:09.488000,-0.0236220472440944
2024-06-27 15:32:09.492000,-0.0255447720197765
2024-06-27 15:32:09.496000,-0.0249954220838674
2024-06-27 15:32:09.500000,-0.0238051638893975
2024-06-27 15:32:09.504000,-0.025453213697125
2024-06-27 15:32:09.508000,-0.0312213880241713
2024-06-27 15:32:09.512000,-0.0393700787401574
2024-06-27 15:32:09.516000,-0.0466031862296282
2024-06-27 15:32:09.520000,-0.0509064273942501
2024-06-27 15:32:09.524000,-0.0527375938472807
2024-06-27 15:32:09.528000,-0.0519135689434169
2024-06-27 15:32:09.532000,-0.0473356528108405
2024-06-27 15:32:09.536000,-0.0384544955136421
2024-06-27 15:32:09.540000,-0.0253616553744735
2024-06-27 15:32:09.544000,-0.009705182201062
2024-06-27 15:32:09.548000,0.0025636330342428
2024-06-27 15:32:09.552000,0.0057681743270463
2024-06-27 15:32:09.556000,0.0009155832265152
2024-06-27 15:32:09.560000,-0.0077824574253799
2024-06-27 15:32:09.564000,-0.017487639626442
2024-06-27 15:32:09.568000,-0.0241713971800036
2024-06-27 15:32:09.572000,-0.0256363303424281
2024-06-27 15:32:09.576000,-0.023896722212049
2024-06-27 15:32:09.580000,-0.0216077641457608
2024-06-27 15:32:09.584000,-0.0198681560153817
2024-06-27 15:32:09.588000,-0.019227247756821
2024-06-27 15:32:09.592000,-0.019227247756821
2024-06-27 15:32:09.596000,-0.0195019227247756
2024-06-27 15:32:09.600000,-0.0198681560153817
2024-06-27 15:32:09.604000,-0.0202343893059879
2024-06-27 15:32:09.608000,-0.0195019227247756
2024-06-27 15:32:09.612000,-0.0155649148507599
2024-06-27 15:32:09.616000,-0.0070499908441677
2024-06-27 15:32:09.620000,0.0034792162607581
2024-06-27 15:32:09.624000,0.0108954403955319
2024-06-27 15:32:09.628000,0.0119025819446987
2024-06-27 15:32:09.632000,0.0074162241347738
2024-06-27 15:32:09.636000,-0.0008240249038637
2024-06-27 15:32:09.640000,-0.0134590734297747
2024-06-27 15:32:09.644000,-0.0292986632484892
2024-06-27 15:32:09.648000,-0.0420252700970518
2024-06-27 15:32:09.652000,-0.047610327778795
2024-06-27 15:32:09.656000,-0.0484343526826588
2024-06-27 15:32:09.660000,-0.0467863028749313
2024-06-27 15:32:09.664000,-0.0418421534517487
2024-06-27 15:32:09.668000,-0.0333272294451565
2024-06-27 15:32:09.672000,-0.0242629555026551
2024-06-27 15:32:09.676000,-0.0156564731734114
2024-06-27 15:32:09.680000,-0.0069584325215162
2024-06-27 15:32:09.684000,-0.0036623329060611
2024-06-27 15:32:09.688000,-0.011078557040835
2024-06-27 15:32:09.692000,-0.0262772386009888
2024-06-27 15:32:09.696000,-0.0437648782274308
2024-06-27 15:32:09.700000,-0.0591466764328877
2024-06-27 15:32:09.704000,-0.0683940670206921
2024-06-27 15:32:09.708000,-0.069401208569859
2024-06-27 15:32:09.712000,-0.0654642006958432
2024-06-27 15:32:09.716000,-0.0605200512726606
2024-06-27 15:32:09.720000,-0.0548434352682658
2024-06-27 15:32:09.724000,-0.047610327778795
2024-06-27 15:32:09.728000,-0.0377220289324299
2024-06-27 15:32:09.732000,-0.0249038637612158
2024-06-27 15:32:09.736000,-0.0121772569126533
2024-06-27 15:32:09.740000,-0.005035707745834
2024-06-27 15:32:09.744000,-0.0065006409082585
2024-06-27 15:32:09.748000,-0.0139168650430324
2024-06-27 15:32:09.752000,-0.0213330891778062
2024-06-27 15:32:09.756000,-0.0251785387291704
2024-06-27 15:32:09.760000,-0.0236220472440944
2024-06-27 15:32:09.764000,-0.0166636147225782
2024-06-27 15:32:09.768000,-0.0075077824574253
2024-06-27 15:32:09.772000,0.0006409082585607
2024-06-27 15:32:09.776000,0.0061344076176524
2024-06-27 15:32:09.780000,0.0087895989745467
2024-06-27 15:32:09.784000,0.0093389489104559
2024-06-27 15:32:09.788000,0.0077824574253799
2024-06-27 15:32:09.792000,0.0021973997436366
2024-06-27 15:32:09.796000,-0.0078740157480314
2024-06-27 15:32:09.800000,-0.0213330891778062
2024-06-27 15:32:09.804000,-0.0348837209302325
2024-06-27 15:32:09.808000,-0.0455044863578099
2024-06-27 15:32:09.812000,-0.0527375938472807
2024-06-27 15:32:09.816000,-0.0580479765610694
2024-06-27 15:32:09.820000,-0.0606116095953122
2024-06-27 15:32:09.824000,-0.0563083684306903
2024-06-27 15:32:09.828000,-0.0455044863578099
2024-06-27 15:32:09.832000,-0.0387291704815967
2024-06-27 15:32:09.836000,-0.042757736678264
2024-06-27 15:32:09.840000,-0.0528291521699322
2024-06-27 15:32:09.844000,-0.0602453763047061
2024-06-27 15:32:09.848000,-0.0498992858450833
2024-06-27 15:32:09.852000,-0.0054934993590917
2024-06-27 15:32:09.856000,0.0740706830250869
2024-06-27 15:32:09.860000,0.1725874381981322
2024-06-27 15:32:09.864000,0.2630470609778428
2024-06-27 15:32:09.868000,0.3174327046328511
2024-06-27 15:32:09.872000,0.3160593297930782
2024-06-27 15:32:09.876000,0.2513275956784471
2024-06-27 15:32:09.880000,0.1337667093938839
2024-06-27 15:32:09.884000,-0.0071415491668192
2024-06-27 15:32:09.888000,-0.1376121589452481
2024-06-27 15:32:09.892000,-0.2347555392785204
2024-06-27 15:32:09.896000,-0.2820911920893609
2024-06-27 15:32:09.900000,-0.2730269181468595
2024-06-27 15:32:09.904000,-0.2257828236586705
2024-06-27 15:32:09.908000,-0.1686504303241164
2024-06-27 15:32:09.912000,-0.1205823109320637
2024-06-27 15:32:09.916000,-0.0923823475553927
2024-06-27 15:32:09.920000,-0.0821278154184215
2024-06-27 15:32:09.924000,-0.0788317158029665
2024-06-27 15:32:09.928000,-0.0744369163156931
2024-06-27 15:32:09.932000,-0.0661966672770554
2024-06-27 15:32:09.936000,-0.0553012268815235
2024-06-27 15:32:09.940000,-0.0449551364219007
2024-06-27 15:32:09.944000,-0.038088262223036
2024-06-27 15:32:09.948000,-0.0352499542208386
2024-06-27 15:32:09.952000,-0.0348837209302325
2024-06-27 15:32:09.956000,-0.034975279252884
2024-06-27 15:32:09.960000,-0.0341512543490203
2024-06-27 15:32:09.964000,-0.0325947628639443
2024-06-27 15:32:09.968000,-0.0322285295733382
2024-06-27 15:32:09.972000,-0.0341512543490203
2024-06-27 15:32:09.976000,-0.0358908624793993
2024-06-27 15:32:09.980000,-0.0351583958981871
2024-06-27 15:32:09.984000,-0.0319538546053836
2024-06-27 15:32:09.988000,-0.026826588536898
2024-06-27 15:32:09.992000,-0.0205090642739425
2024-06-27 15:32:09.996000,-0.0153817982054568
2024-06-27 15:32:10.000000,-0.0142830983336385
2024-06-27 15:32:10.004000,-0.0178538729170481
2024-06-27 15:32:10.008000,-0.0242629555026551
2024-06-27 15:32:10.012000,-0.0305804797656106
2024-06-27 15:32:10.016000,-0.0340596960263687
2024-06-27 15:32:10.020000,-0.0343343709943233
2024-06-27 15:32:10.024000,-0.0312213880241713
2024-06-27 15:32:10.028000,-0.0249038637612158
2024-06-27 15:32:10.032000,-0.0162973814319721
2024-06-27 15:32:10.036000,-0.0066837575535616
2024-06-27 15:32:10.040000,0.0018311664530305
2024-06-27 15:32:10.044000,0.0073246658121223
2024-06-27 15:32:10.048000,0.0102545321369712
2024-06-27 15:32:10.052000,0.0135506317524262
2024-06-27 15:32:10.056000,0.0188610144662149
2024-06-27 15:32:10.060000,0.0232558139534883
2024-06-27 15:32:10.064000,0.0234389305987914
2024-06-27 15:32:10.068000,0.0216993224684123
2024-06-27 15:32:10.072000,0.022340230726973
2024-06-27 15:32:10.076000,0.0269181468595495
2024-06-27 15:32:10.080000,0.0374473539644753
2024-06-27 15:32:10.084000,0.0568577183665995
2024-06-27 15:32:10.088000,0.0801135323200879
2024-06-27 15:32:10.092000,0.0974180553012268
2024-06-27 15:32:10.096000,0.1060245376304706
2024-06-27 15:32:10.100000,0.1102362204724409
2024-06-27 15:32:10.104000,0.1147225782823658
2024-06-27 15:32:10.108000,0.1220472440944882
2024-06-27 15:32:10.112000,0.1315693096502472
2024-06-27 15:32:10.116000,0.1397180003662333
2024-06-27 15:32:10.120000,0.1447537081120674
2024-06-27 15:32:10.124000,0.1484160410181285
2024-06-27 15:32:10.128000,0.151620582310932
2024-06-27 15:32:10.132000,0.1533601904413111
2024-06-27 15:32:10.136000,0.1517121406335836
2024-06-27 15:32:10.140000,0.1446621497894158
2024-06-27 15:32:10.144000,0.1313861930049441
2024-06-27 15:32:10.148000,0.112158945248123
2024-06-27 15:32:10.152000,0.0871635231642556
2024-06-27 15:32:10.156000,0.0579564182384178
2024-06-27 15:32:10.160000,0.0293902215711408
2024-06-27 15:32:10.164000,0.0072331074894707
2024-06-27 15:32:10.168000,-0.0054019410364402
2024-06-27 15:32:10.172000,-0.0102545321369712
2024-06-27 15:32:10.176000,-0.0115363486540926
2024-06-27 15:32:10.180000,-0.012818165171214
2024-06-27 15:32:10.184000,-0.0160227064640175
2024-06-27 15:32:10.188000,-0.0198681560153817
2024-06-27 15:32:10.192000,-0.0212415308551547
2024-06-27 15:32:10.196000,-0.0201428309833363
2024-06-27 15:32:10.200000,-0.0186778978209119
2024-06-27 15:32:10.204000,-0.0175791979490935
2024-06-27 15:32:10.208000,-0.0175791979490935
2024-06-27 15:32:10.212000,-0.0208752975645486
2024-06-27 15:32:10.216000,-0.0294817798937923
2024-06-27 15:32:10.220000,-0.0405603369346273
2024-06-27 15:32:10.224000,-0.048983702618568
2024-06-27 15:32:10.228000,-0.0534700604284929
2024-06-27 15:32:10.232000,-0.0559421351400842
2024-06-27 15:32:10.236000,-0.0581395348837209
2024-06-27 15:32:10.240000,-0.0596960263687969
2024-06-27 15:32:10.244000,-0.0609778428859183
2024-06-27 15:32:10.248000,-0.0634499175975096
2024-06-27 15:32:10.252000,-0.0688518586339498
2024-06-27 15:32:10.256000,-0.0780992492217542
2024-06-27 15:32:10.260000,-0.0886284563266801
2024-06-27 15:32:10.264000,-0.0953122138802417
2024-06-27 15:32:10.268000,-0.0967771470426661
2024-06-27 15:32:10.272000,-0.0957700054934993
2024-06-27 15:32:10.276000,-0.094854422266984
2024-06-27 15:32:10.280000,-0.0942135140084233
2024-06-27 15:32:10.284000,-0.0930232558139534
2024-06-27 15:32:10.288000,-0.0923823475553927
2024-06-27 15:32:10.292000,-0.0947628639443325
2024-06-27 15:32:10.296000,-0.1012635048525911
2024-06-27 15:32:10.300000,-0.107306354147592
2024-06-27 15:32:10.304000,-0.1082219373741073
2024-06-27 15:32:10.308000,-0.1027284380150155
2024-06-27 15:32:10.312000,-0.0924739058780443
2024-06-27 15:32:10.316000,-0.0819446987731184
2024-06-27 15:32:10.320000,-0.0748031496062992
2024-06-27 15:32:10.324000,-0.0701336751510712
2024-06-27 15:32:10.328000,-0.0661051089544039
2024-06-27 15:32:10.332000,-0.0623512177256912
2024-06-27 15:32:10.336000,-0.0591466764328877
2024-06-27 15:32:10.340000,-0.0571323933345541
2024-06-27 15:32:10.344000,-0.0560336934627357
2024-06-27 15:32:10.348000,-0.0541109686870536
2024-06-27 15:32:10.352000,-0.0509979857169016
2024-06-27 15:32:10.356000,-0.047427211133492
2024-06-27 15:32:10.360000,-0.0445889031312946
2024-06-27 15:32:10.364000,-0.0428492950009155
2024-06-27 15:32:10.368000,-0.0399194286760666
2024-06-27 15:32:10.372000,-0.0327778795092473
2024-06-27 15:32:10.376000,-0.0224317890496246
2024-06-27 15:32:10.380000,-0.0124519318806079
2024-06-27 15:32:10.384000,-0.0040285661966672
2024-06-27 15:32:10.388000,0.0024720747115912
2024-06-27 15:32:10.392000,0.0071415491668192
2024-06-27 15:32:10.396000,0.0109869987181834
2024-06-27 15:32:10.400000,0.0153817982054568
2024-06-27 15:32:10.404000,0.0197765976927302
2024-06-27 15:32:10.408000,0.0233473722761399
2024-06-27 15:32:10.412000,0.0264603552462918
2024-06-27 15:32:10.416000,0.0315876213147775
2024-06-27 15:32:10.420000,0.0402856619666727
2024-06-27 15:32:10.424000,0.0513642190075077
2024-06-27 15:32:10.428000,0.0623512177256912
2024-06-27 15:32:10.432000,0.069401208569859
2024-06-27 15:32:10.436000,0.0685771836659952
2024-06-27 15:32:10.440000,0.0607947262406152
2024-06-27 15:32:10.444000,0.0523713605566746
2024-06-27 15:32:10.448000,0.0503570774583409
2024-06-27 15:32:10.452000,0.0575901849478117
2024-06-27 15:32:10.456000,0.0699505585057681
2024-06-27 15:32:10.460000,0.0802050906427394
2024-06-27 15:32:10.464000,0.0859732649697857
2024-06-27 15:32:10.468000,0.0901849478117561
2024-06-27 15:32:10.472000,0.0936641640725142
2024-06-27 15:32:10.476000,0.0942135140084233
2024-06-27 15:32:10.480000,0.0922907892327412
2024-06-27 15:32:10.484000,0.0898187145211499
2024-06-27 15:32:10.488000,0.0877128731001648
2024-06-27 15:32:10.492000,0.0846914484526643
2024-06-27 15:32:10.496000,0.0802050906427394
2024-06-27 15:32:10.500000,0.0813037905145577
2024-06-27 15:32:10.504000,0.0942135140084233
2024-06-27 15:32:10.508000,0.1098699871818348
2024-06-27 15:32:10.512000,0.1140816700238051
2024-06-27 15:32:10.516000,0.1036440212415308
2024-06-27 15:32:10.520000,0.0869804065189525
2024-06-27 15:32:10.524000,0.0751693828969053
2024-06-27 15:32:10.528000,0.0727888665079655
2024-06-27 15:32:10.532000,0.075993407800769
2024-06-27 15:32:10.536000,0.0787401574803149
2024-06-27 15:32:10.540000,0.0781908075444057
2024-06-27 15:32:10.544000,0.0766343160593298
2024-06-27 15:32:10.548000,0.0769089910272843
2024-06-27 15:32:10.552000,0.078923274125618
2024-06-27 15:32:10.556000,0.0799304156747848
2024-06-27 15:32:10.560000,0.0787401574803149
2024-06-27 15:32:10.564000,0.0776414576084966
2024-06-27 15:32:10.568000,0.0798388573521333
2024-06-27 15:32:10.572000,0.0845083318073613
2024-06-27 15:32:10.576000,0.0892693645852408
2024-06-27 15:32:10.580000,0.093297930781908
2024-06-27 15:32:10.584000,0.0970518220106207
2024-06-27 15:32:10.588000,0.0989745467863028
2024-06-27 15:32:10.592000,0.09641091375206
2024-06-27 15:32:10.596000,0.0888115729719831
2024-06-27 15:32:10.600000,0.0795641823841787
2024-06-27 15:32:10.604000,0.0712323750228895
2024-06-27 15:32:10.608000,0.064731734114631
2024-06-27 15:32:10.612000,0.0629921259842519
2024-06-27 15:32:10.616000,0.0667460172129646
2024-06-27 15:32:10.620000,0.0756271745101629
2024-06-27 15:32:10.624000,0.0896355978758469
2024-06-27 15:32:10.628000,0.1021790880791063
2024-06-27 15:32:10.632000,0.1023622047244094
2024-06-27 15:32:10.636000,0.0859732649697857
2024-06-27 15:32:10.640000,0.0589635597875846
2024-06-27 15:32:10.644000,0.0311298297015198
2024-06-27 15:32:10.648000,0.0073246658121223
2024-06-27 15:32:10.652000,-0.0097967405237136
2024-06-27 15:32:10.656000,-0.0166636147225782
2024-06-27 15:32:10.660000,-0.0153817982054568
2024-06-27 15:32:10.664000,-0.0133675151071232
2024-06-27 15:32:10.668000,-0.0124519318806079
2024-06-27 15:32:10.672000,-0.0089727156198498
2024-06-27 15:32:10.676000,-0.0082402490386376
2024-06-27 15:32:10.680000,-0.017487639626442
2024-06-27 15:32:10.684000,-0.0286577549899285
2024-06-27 15:32:10.688000,-0.0216993224684123
2024-06-27 15:32:10.692000,0.0191356894341695
2024-06-27 15:32:10.696000,0.0921076725874382
2024-06-27 15:32:10.700000,0.1811939205273759
2024-06-27 15:32:10.704000,0.263413294268449
2024-06-27 15:32:10.708000,0.3166086797289874
2024-06-27 15:32:10.712000,0.329884636513459
2024-06-27 15:32:10.716000,0.2954587071964841
2024-06-27 15:32:10.720000,0.2081120673869254
2024-06-27 15:32:10.724000,0.0841420985167551
2024-06-27 15:32:10.728000,-0.0483427943600073
2024-06-27 15:32:10.732000,-0.1667277055484343
2024-06-27 15:32:10.736000,-0.2485808459989013
2024-06-27 15:32:10.740000,-0.2707379600805713
2024-06-27 15:32:10.744000,-0.232100347921626
2024-06-27 15:32:10.748000,-0.1659952389672221
2024-06-27 15:32:10.752000,-0.1076725874381981
2024-06-27 15:32:10.756000,-0.0713239333455411
2024-06-27 15:32:10.760000,-0.0582310932063724
2024-06-27 15:32:10.764000,-0.0584142098516755
2024-06-27 15:32:10.768000,-0.0586888848196301
2024-06-27 15:32:10.772000,-0.0554843435268265
2024-06-27 15:32:10.776000,-0.0483427943600073
2024-06-27 15:32:10.780000,-0.0321369712506866
2024-06-27 15:32:10.784000,-0.0066837575535616
2024-06-27 15:32:10.788000,0.0151071232375022
2024-06-27 15:32:10.792000,0.0205090642739425
2024-06-27 15:32:10.796000,0.0084233656839406
2024-06-27 15:32:10.800000,-0.0108038820728804
2024-06-27 15:32:10.804000,-0.0244460721479582
2024-06-27 15:32:10.808000,-0.0265519135689434
2024-06-27 15:32:10.812000,-0.020600622596594
2024-06-27 15:32:10.816000,-0.0130928401391686
2024-06-27 15:32:10.820000,-0.0072331074894707
2024-06-27 15:32:10.824000,-0.0045779161325764
2024-06-27 15:32:10.828000,-0.0075993407800769
2024-06-27 15:32:10.832000,-0.0158395898187145
2024-06-27 15:32:10.836000,-0.0236220472440944
2024-06-27 15:32:10.840000,-0.0275590551181102
2024-06-27 15:32:10.844000,-0.0291155466031862
2024-06-27 15:32:10.848000,-0.0296648965390954
2024-06-27 15:32:10.852000,-0.0281999633766709
2024-06-27 15:32:10.856000,-0.0210584142098516
2024-06-27 15:32:10.860000,-0.0062259659403039
2024-06-27 15:32:10.864000,0.0099798571690166
2024-06-27 15:32:10.868000,0.0169382896905328
2024-06-27 15:32:10.872000,0.0124519318806079
2024-06-27 15:32:10.876000,0.0040285661966672
2024-06-27 15:32:10.880000,-0.0019227247756821
2024-06-27 15:32:10.884000,-0.004852591100531
2024-06-27 15:32:10.888000,-0.0054934993590917
2024-06-27 15:32:10.892000,-0.0021058414209851
2024-06-27 15:32:10.896000,0.0087895989745467
2024-06-27 15:32:10.900000,0.0276506134407617
2024-06-27 15:32:10.904000,0.047610327778795
2024-06-27 15:32:10.908000,0.0620765427577366
2024-06-27 15:32:10.912000,0.0715070499908441
2024-06-27 15:32:10.916000,0.0788317158029665
2024-06-27 15:32:10.920000,0.0843252151620582
2024-06-27 15:32:10.924000,0.090001831166453
2024-06-27 15:32:10.928000,0.0998901300128181
2024-06-27 15:32:10.932000,0.1127998535066837
2024-06-27 15:32:10.936000,0.1222303607397912
2024-06-27 15:32:10.940000,0.1248855520966855
2024-06-27 15:32:10.944000,0.124793993774034
2024-06-27 15:32:10.948000,0.1284563266800952
2024-06-27 15:32:10.952000,0.1387108588170664
2024-06-27 15:32:10.956000,0.1511627906976744
2024-06-27 15:32:10.960000,0.1622413477385094
2024-06-27 15:32:10.964000,0.1707562717451016
2024-06-27 15:32:10.968000,0.1710309467130562
2024-06-27 15:32:10.972000,0.1606848562534334
2024-06-27 15:32:10.976000,0.1440212415308551
2024-06-27 15:32:10.980000,0.1237868522248672
2024-06-27 15:32:10.984000,0.1017212964658487
2024-06-27 15:32:10.988000,0.082219373741073
2024-06-27 15:32:10.992000,0.0663797839223585
2024-06-27 15:32:10.996000,0.0521882439113715
2024-06-27 15:32:11.000000,0.0411096868705365
2024-06-27 15:32:11.004000,0.0362570957700054
2024-06-27 15:32:11.008000,0.0358908624793993
2024-06-27 15:32:11.012000,0.0307635964109137
2024-06-27 15:32:11.016000,0.0120856985900018
2024-06-27 15:32:11.020000,-0.0173960813037905
2024-06-27 15:32:11.024000,-0.0448635780992492
2024-06-27 15:32:11.028000,-0.0607947262406152
2024-06-27 15:32:11.032000,-0.0640908258560703
2024-06-27 15:32:11.036000,-0.0582310932063724
2024-06-27 15:32:11.040000,-0.0453213697125068
2024-06-27 15:32:11.044000,-0.0300311298297015
2024-06-27 15:32:11.048000,-0.0228895806628822
2024-06-27 15:32:11.052000,-0.0292071049258377
2024-06-27 15:32:11.056000,-0.0421168284197033
2024-06-27 15:32:11.060000,-0.0531953854605383
2024-06-27 15:32:11.064000,-0.0587804431422816
2024-06-27 15:32:11.068000,-0.0597875846914484
2024-06-27 15:32:11.072000,-0.0593297930781908
2024-06-27 15:32:11.076000,-0.0594213514008423
2024-06-27 15:32:11.080000,-0.0602453763047061
2024-06-27 15:32:11.084000,-0.0607947262406152
2024-06-27 15:32:11.088000,-0.0607947262406152
2024-06-27 15:32:11.092000,-0.0605200512726606
2024-06-27 15:32:11.096000,-0.0598791430140999
2024-06-27 15:32:11.100000,-0.0561252517853872
2024-06-27 15:32:11.104000,-0.0468778611975828
2024-06-27 15:32:11.108000,-0.0362570957700054
2024-06-27 15:32:11.112000,-0.0330525544772019
2024-06-27 15:32:11.116000,-0.0432155282915217
2024-06-27 15:32:11.120000,-0.061801867789782
2024-06-27 15:32:11.124000,-0.0763596410913752
2024-06-27 15:32:11.128000,-0.0813953488372093
2024-06-27 15:32:11.132000,-0.0811206738692547
2024-06-27 15:32:11.136000,-0.0802966489653909
2024-06-27 15:32:11.140000,-0.080662882255997
2024-06-27 15:32:11.144000,-0.0815784654825123
2024-06-27 15:32:11.148000,-0.0823109320637246
2024-06-27 15:32:11.152000,-0.0825856070316791
2024-06-27 15:32:11.156000,-0.0810291155466031
2024-06-27 15:32:11.160000,-0.0766343160593298
2024-06-27 15:32:11.164000,-0.0705914667643288
2024-06-27 15:32:11.168000,-0.0661966672770554
2024-06-27 15:32:11.172000,-0.064914850759934
2024-06-27 15:32:11.176000,-0.0658304339864493
2024-06-27 15:32:11.180000,-0.0671122505035707
2024-06-27 15:32:11.184000,-0.0679362754074345
2024-06-27 15:32:11.188000,-0.0674784837941769
2024-06-27 15:32:11.192000,-0.064914850759934
2024-06-27 15:32:11.196000,-0.0604284929500091
2024-06-27 15:32:11.200000,-0.0541109686870536
2024-06-27 15:32:11.204000,-0.0472440944881889
2024-06-27 15:32:11.208000,-0.0432155282915217
2024-06-27 15:32:11.212000,-0.0430324116462186
2024-06-27 15:32:11.216000,-0.0448635780992492
2024-06-27 15:32:11.220000,-0.0482512360373557
2024-06-27 15:32:11.224000,-0.0549349935909174
2024-06-27 15:32:11.228000,-0.0651895257278886
2024-06-27 15:32:11.232000,-0.0759018494781175
2024-06-27 15:32:11.236000,-0.0852407983885735
2024-06-27 15:32:11.240000,-0.0949459805896356
2024-06-27 15:32:11.244000,-0.1030031129829701
2024-06-27 15:32:11.248000,-0.1044680461453946
2024-06-27 15:32:11.252000,-0.0982420802050906
2024-06-27 15:32:11.256000,-0.0883537813587255
2024-06-27 15:32:11.260000,-0.0797472990294817
2024-06-27 15:32:11.264000,-0.0740706830250869
2024-06-27 15:32:11.268000,-0.0712323750228895
2024-06-27 15:32:11.272000,-0.0706830250869804
2024-06-27 15:32:11.276000,-0.0708661417322834
2024-06-27 15:32:11.280000,-0.069584325215162
2024-06-27 15:32:11.284000,-0.0661966672770554
2024-06-27 15:32:11.288000,-0.0625343343709943
2024-06-27 15:32:11.292000,-0.0607031679179637
2024-06-27 15:32:11.296000,-0.0609778428859183
2024-06-27 15:32:11.300000,-0.0623512177256912
2024-06-27 15:32:11.304000,-0.0629921259842519
2024-06-27 15:32:11.308000,-0.0592382347555392
2024-06-27 15:32:11.312000,-0.0478850027467496
2024-06-27 15:32:11.316000,-0.0325947628639443
2024-06-27 15:32:11.320000,-0.0215162058231093
2024-06-27 15:32:11.324000,-0.0178538729170481
2024-06-27 15:32:11.328000,-0.017487639626442
2024-06-27 15:32:11.332000,-0.0161142647866691
2024-06-27 15:32:11.336000,-0.0130928401391686
2024-06-27 15:32:11.340000,-0.0105292071049258
2024-06-27 15:32:11.344000,-0.0096136238784105
2024-06-27 15:32:11.348000,-0.009705182201062
2024-06-27 15:32:11.352000,-0.0102545321369712
2024-06-27 15:32:11.356000,-0.0115363486540926
2024-06-27 15:32:11.360000,-0.0145577733015931
2024-06-27 15:32:11.364000,-0.0182201062076542
2024-06-27 15:32:11.368000,-0.0202343893059879
2024-06-27 15:32:11.372000,-0.0199597143380333
2024-06-27 15:32:11.376000,-0.0194103644021241
2024-06-27 15:32:11.380000,-0.0199597143380333
2024-06-27 15:32:11.384000,-0.0205090642739425
2024-06-27 15:32:11.388000,-0.0191356894341695
2024-06-27 15:32:11.392000,-0.015931148141366
2024-06-27 15:32:11.396000,-0.0129097234938655
2024-06-27 15:32:11.400000,-0.0115363486540926
2024-06-27 15:32:11.404000,-0.0113532320087895
2024-06-27 15:32:11.408000,-0.011078557040835
2024-06-27 15:32:11.412000,-0.0097967405237136
2024-06-27 15:32:11.416000,-0.0073246658121223
2024-06-27 15:32:11.420000,-0.0031129829701519
2024-06-27 15:32:11.424000,0.0021973997436366
2024-06-27 15:32:11.428000,0.006409082585607
2024-06-27 15:32:11.432000,0.00659219923091
2024-06-27 15:32:11.436000,0.0021058414209851
2024-06-27 15:32:11.440000,-0.0043947994872733
2024-06-27 15:32:11.444000,-0.0085149240065921
2024-06-27 15:32:11.448000,-0.0063175242629555
2024-06-27 15:32:11.452000,0.0019227247756821
2024-06-27 15:32:11.456000,0.0119941402673503
2024-06-27 15:32:11.460000,0.0209668558872001
2024-06-27 15:32:11.464000,0.0273759384728071
2024-06-27 15:32:11.468000,0.0255447720197765
2024-06-27 15:32:11.472000,0.0121772569126533
2024-06-27 15:32:11.476000,-0.0086064823292437
2024-06-27 15:32:11.480000,-0.0305804797656106
2024-06-27 15:32:11.484000,-0.0479765610694012
2024-06-27 15:32:11.488000,-0.0567661600439479
2024-06-27 15:32:11.492000,-0.0583226515290239
2024-06-27 15:32:11.496000,-0.0574070683025087
2024-06-27 15:32:11.500000,-0.0568577183665995
2024-06-27 15:32:11.504000,-0.0559421351400842
2024-06-27 15:32:11.508000,-0.0537447353964475
2024-06-27 15:32:11.512000,-0.0544772019776597
2024-06-27 15:32:11.516000,-0.0636330342428126
2024-06-27 15:32:11.520000,-0.0754440578648599
2024-06-27 15:32:11.524000,-0.077549899285845
2024-06-27 15:32:11.528000,-0.0721479582494048
2024-06-27 15:32:11.532000,-0.0670206921809192
2024-06-27 15:32:11.536000,-0.0555759018494781
2024-06-27 15:32:11.540000,-0.0175791979490935
2024-06-27 15:32:11.544000,0.0599707013367515
2024-06-27 15:32:11.548000,0.1624244643838125
2024-06-27 15:32:11.552000,0.2559055118110236
2024-06-27 15:32:11.556000,0.3041567478483794
2024-06-27 15:32:11.560000,0.2787950924739059
2024-06-27 15:32:11.564000,0.17844717084783
2024-06-27 15:32:11.568000,0.0331441127998535
2024-06-27 15:32:11.572000,-0.1151803698956235
2024-06-27 15:32:11.576000,-0.2374107306354147
2024-06-27 15:32:11.580000,-0.3140450466947445
2024-06-27 15:32:11.584000,-0.3331807361289141
2024-06-27 15:32:11.588000,-0.3091924555942135
2024-06-27 15:32:11.592000,-0.2678996520783739
2024-06-27 15:32:11.596000,-0.2245925654642007
2024-06-27 15:32:11.600000,-0.1930049441494231
2024-06-27 15:32:11.604000,-0.1792711957516938
2024-06-27 15:32:11.608000,-0.175151071232375
2024-06-27 15:32:11.612000,-0.1697491301959348
2024-06-27 15:32:11.616000,-0.1579381065738875
2024-06-27 15:32:11.620000,-0.1411829335286577
2024-06-27 15:32:11.624000,-0.1267167185497161
2024-06-27 15:32:11.628000,-0.1215894524812305
2024-06-27 15:32:11.632000,-0.1248855520966855
2024-06-27 15:32:11.636000,-0.1317524262955502
2024-06-27 15:32:11.640000,-0.1399926753341878
2024-06-27 15:32:11.644000,-0.1464933162424464
2024-06-27 15:32:11.648000,-0.1459439663065372
2024-06-27 15:32:11.652000,-0.1366965757187328
2024-06-27 15:32:11.656000,-0.1233290606116096
2024-06-27 15:32:11.660000,-0.1142647866691082
2024-06-27 15:32:11.664000,-0.1144479033144112
2024-06-27 15:32:11.668000,-0.1221388024171397
2024-06-27 15:32:11.672000,-0.1312946346822926
2024-06-27 15:32:11.676000,-0.1397180003662333
2024-06-27 15:32:11.680000,-0.1484160410181285
2024-06-27 15:32:11.684000,-0.1539095403772203
2024-06-27 15:32:11.688000,-0.1496978575352499
2024-06-27 15:32:11.692000,-0.1355063175242629
2024-06-27 15:32:11.696000,-0.1207654275773667
2024-06-27 15:32:11.700000,-0.1171030946713056
2024-06-27 15:32:11.704000,-0.1243362021607764
2024-06-27 15:32:11.708000,-0.1324848928767625
2024-06-27 15:32:11.712000,-0.1362387841054751
2024-06-27 15:32:11.716000,-0.1375206006225966
2024-06-27 15:32:11.720000,-0.1383446255264603
2024-06-27 15:32:11.724000,-0.1376121589452481
2024-06-27 15:32:11.728000,-0.1346822926203991
2024-06-27 15:32:11.732000,-0.1318439846182018
2024-06-27 15:32:11.736000,-0.131019959714338
2024-06-27 15:32:11.740000,-0.1319355429408533
2024-06-27 15:32:11.744000,-0.1329426844900201
2024-06-27 15:32:11.748000,-0.1302874931331258
2024-06-27 15:32:11.752000,-0.1207654275773667
2024-06-27 15:32:11.756000,-0.1052920710492583
2024-06-27 15:32:11.760000,-0.0887200146493316
2024-06-27 15:32:11.764000,-0.0748031496062992
2024-06-27 15:32:11.768000,-0.0652810840505402
2024-06-27 15:32:11.772000,-0.0584142098516755
2024-06-27 15:32:11.776000,-0.0501739608130379
2024-06-27 15:32:11.780000,-0.0391869620948544
2024-06-27 15:32:11.784000,-0.0238051638893975
2024-06-27 15:32:11.788000,-0.0026551913568943
2024-06-27 15:32:11.792000,0.0194103644021241
2024-06-27 15:32:11.796000,0.0357077458340963
2024-06-27 15:32:11.800000,0.0448635780992492
2024-06-27 15:32:11.804000,0.0508148690715986
2024-06-27 15:32:11.808000,0.0581395348837209
2024-06-27 15:32:11.812000,0.067844717084783
2024-06-27 15:32:11.816000,0.0772752243178905
2024-06-27 15:32:11.820000,0.0844167734847097
2024-06-27 15:32:11.824000,0.0904596227797106
2024-06-27 15:32:11.828000,0.09641091375206
2024-06-27 15:32:11.832000,0.1009888298846365
2024-06-27 15:32:11.836000,0.1032777879509247
2024-06-27 15:32:11.840000,0.102636879692364
2024-06-27 15:32:11.844000,0.0988829884636513
2024-06-27 15:32:11.848000,0.0923823475553927
2024-06-27 15:32:11.852000,0.0834096319355429
2024-06-27 15:32:11.856000,0.0729719831532686
2024-06-27 15:32:11.860000,0.0655557590184947
2024-06-27 15:32:11.864000,0.0693096502472074
2024-06-27 15:32:11.868000,0.0876213147775132
2024-06-27 15:32:11.872000,0.1127998535066837
2024-06-27 15:32:11.876000,0.1320271012635048
2024-06-27 15:32:11.880000,0.140358908624794
2024-06-27 15:32:11.884000,0.1425563083684307
2024-06-27 15:32:11.888000,0.1450283830800219
2024-06-27 15:32:11.892000,0.1493316242446438
2024-06-27 15:32:11.896000,0.1537264237319172
2024-06-27 15:32:11.900000,0.157663431605933
2024-06-27 15:32:11.904000,0.1612342061893426
2024-06-27 15:32:11.908000,0.1641640725141915
2024-06-27 15:32:11.912000,0.1663614722578282
2024-06-27 15:32:11.916000,0.1681010803882072
2024-06-27 15:32:11.920000,0.1702069218091924
2024-06-27 15:32:11.924000,0.173594579747299
2024-06-27 15:32:11.928000,0.1792711957516938
2024-06-27 15:32:11.932000,0.1868705365317707
2024-06-27 15:32:11.936000,0.194195202343893
2024-06-27 15:32:11.940000,0.198864676799121
2024-06-27 15:32:11.944000,0.200421168284197
2024-06-27 15:32:11.948000,0.1997802600256363
2024-06-27 15:32:11.952000,0.1987731184764695
2024-06-27 15:32:11.956000,0.2007874015748031
2024-06-27 15:32:11.960000,0.2079289507416224
2024-06-27 15:32:11.964000,0.2168101080388207
2024-06-27 15:32:11.968000,0.2205639992675334
2024-06-27 15:32:11.972000,0.2181834828785936
2024-06-27 15:32:11.976000,0.2144295916498809
2024-06-27 15:32:11.980000,0.2125068668741988
2024-06-27 15:32:11.984000,0.2111334920344259
2024-06-27 15:32:11.988000,0.2087529756454861
2024-06-27 15:32:11.992000,0.2055484343526826
2024-06-27 15:32:11.996000,0.2011536348654092
2024-06-27 15:32:12.000000,0.1951107855704083
2024-06-27 15:32:12.004000,0.1897088445339681
2024-06-27 15:32:12.008000,0.1873283281450284
2024-06-27 15:32:12.012000,0.1864127449185131
2024-06-27 15:32:12.016000,0.1857718366599524
2024-06-27 15:32:12.020000,0.1867789782091192
2024-06-27 15:32:12.024000,0.1904413111151803
2024-06-27 15:32:12.028000,0.1945614356344991
2024-06-27 15:32:12.032000,0.195568577183666
2024-06-27 15:32:12.036000,0.1925471525361655
2024-06-27 15:32:12.040000,0.1878776780809375
2024-06-27 15:32:12.044000,0.1843984618201794
2024-06-27 15:32:12.048000,0.1839406702069218
2024-06-27 15:32:12.052000,0.1853140450466947
2024-06-27 15:32:12.056000,0.1865043032411646
2024-06-27 15:32:12.060000,0.1871452114997253
2024-06-27 15:32:12.064000,0.187786119758286
2024-06-27 15:32:12.068000,0.1884270280168467
2024-06-27 15:32:12.072000,0.1865958615638161
2024-06-27 15:32:12.076000,0.1791796374290423
2024-06-27 15:32:12.080000,0.1681010803882072
2024-06-27 15:32:12.084000,0.1606848562534334
2024-06-27 15:32:12.088000,0.1608679728987365
2024-06-27 15:32:12.092000,0.1638893975462369
2024-06-27 15:32:12.096000,0.1605017396081303
2024-06-27 15:32:12.100000,0.1443874748214612
2024-06-27 15:32:12.104000,0.1197582860281999
2024-06-27 15:32:12.108000,0.0983336385277421
2024-06-27 15:32:12.112000,0.086888848196301
2024-06-27 15:32:12.116000,0.0843252151620582
2024-06-27 15:32:12.120000,0.0859732649697857
2024-06-27 15:32:12.124000,0.0869804065189525
2024-06-27 15:32:12.128000,0.0829518403222853
2024-06-27 15:32:12.132000,0.071140816700238
2024-06-27 15:32:12.136000,0.0546603186229628
2024-06-27 15:32:12.140000,0.0415674784837941
2024-06-27 15:32:12.144000,0.0360739791247024
2024-06-27 15:32:12.148000,0.0351583958981871
2024-06-27 15:32:12.152000,0.0330525544772019
2024-06-27 15:32:12.156000,0.0271012635048525
2024-06-27 15:32:12.160000,0.0193188060794726
2024-06-27 15:32:12.164000,0.0129097234938655
2024-06-27 15:32:12.168000,0.0070499908441677
2024-06-27 15:32:12.172000,-0.0009155832265152
2024-06-27 15:32:12.176000,-0.0100714154916681
2024-06-27 15:32:12.180000,-0.0169382896905328
2024-06-27 15:32:12.184000,-0.0200512726606848
2024-06-27 15:32:12.188000,-0.0206921809192455
2024-06-27 15:32:12.192000,-0.0201428309833363
2024-06-27 15:32:12.196000,-0.0195934810474272
2024-06-27 15:32:12.200000,-0.020600622596594
2024-06-27 15:32:12.204000,-0.0250869804065189
2024-06-27 15:32:12.208000,-0.0336019044131111
2024-06-27 15:32:12.212000,-0.0424830617103094
2024-06-27 15:32:12.216000,-0.0454129280351583
2024-06-27 15:32:12.220000,-0.0411096868705365
2024-06-27 15:32:12.224000,-0.0346090459622779
2024-06-27 15:32:12.228000,-0.0305804797656106
2024-06-27 15:32:12.232000,-0.0292071049258377
2024-06-27 15:32:12.236000,-0.0282915216993224
2024-06-27 15:32:12.240000,-0.0272843801501556
2024-06-27 15:32:12.244000,-0.0260025636330342
2024-06-27 15:32:12.248000,-0.0248123054385643
2024-06-27 15:32:12.252000,-0.0245376304706097
2024-06-27 15:32:12.256000,-0.0262772386009888
2024-06-27 15:32:12.260000,-0.0307635964109137
2024-06-27 15:32:12.264000,-0.0386376121589452
2024-06-27 15:32:12.268000,-0.0480681193920527
2024-06-27 15:32:12.272000,-0.0556674601721296
2024-06-27 15:32:12.276000,-0.0604284929500091
2024-06-27 15:32:12.280000,-0.0629005676616004
2024-06-27 15:32:12.284000,-0.0627174510162973
2024-06-27 15:32:12.288000,-0.0602453763047061
2024-06-27 15:32:12.292000,-0.0565830433986449
2024-06-27 15:32:12.296000,-0.0521882439113715
2024-06-27 15:32:12.300000,-0.0481596777147042
2024-06-27 15:32:12.304000,-0.0492583775865226
2024-06-27 15:32:12.308000,-0.0620765427577366
2024-06-27 15:32:12.312000,-0.0840505401941036
2024-06-27 15:32:12.316000,-0.0954953305255447
2024-06-27 15:32:12.320000,-0.0729719831532686
2024-06-27 15:32:12.324000,-0.009705182201062
2024-06-27 15:32:12.328000,0.0818531404504669
2024-06-27 15:32:12.332000,0.1776231459439663
2024-06-27 15:32:12.336000,0.2483977293535982
2024-06-27 15:32:12.340000,0.2739425013733748
2024-06-27 15:32:12.344000,0.2495879875480681
2024-06-27 15:32:12.348000,0.1740523713605566
2024-06-27 15:32:12.352000,0.0533785021058414
2024-06-27 15:32:12.356000,-0.0808459989013001
2024-06-27 15:32:12.360000,-0.1923640358908624
2024-06-27 15:32:12.364000,-0.2635964109137521
2024-06-27 15:32:12.368000,-0.2859366416407251
2024-06-27 15:32:12.372000,-0.2645119941402673
2024-06-27 15:32:12.376000,-0.2271561984984435
2024-06-27 15:32:12.380000,-0.198864676799121
2024-06-27 15:32:12.384000,-0.1818348287859366
2024-06-27 15:32:12.388000,-0.1616919978026002
2024-06-27 15:32:12.392000,-0.1279985350668376
2024-06-27 15:32:12.396000,-0.0885368980040285
2024-06-27 15:32:12.400000,-0.0607947262406152
2024-06-27 15:32:12.404000,-0.0498077275224317
2024-06-27 15:32:12.408000,-0.0477934444240981
2024-06-27 15:32:12.412000,-0.0481596777147042
2024-06-27 15:32:12.416000,-0.0493499359091741
2024-06-27 15:32:12.420000,-0.0512726606848562
2024-06-27 15:32:12.424000,-0.052279802234023
2024-06-27 15:32:12.428000,-0.0508148690715986
2024-06-27 15:32:12.432000,-0.0470609778428859
2024-06-27 15:32:12.436000,-0.0423915033876579
2024-06-27 15:32:12.440000,-0.0383629371909906
2024-06-27 15:32:12.444000,-0.0362570957700054
2024-06-27 15:32:12.448000,-0.0358908624793993
2024-06-27 15:32:12.452000,-0.0357077458340963
2024-06-27 15:32:12.456000,-0.0347006042849295
2024-06-27 15:32:12.460000,-0.0328694378318989
2024-06-27 15:32:12.464000,-0.0295733382164438
2024-06-27 15:32:12.468000,-0.0249954220838674
2024-06-27 15:32:12.472000,-0.0216993224684123
2024-06-27 15:32:12.476000,-0.0226149056949276
2024-06-27 15:32:12.480000,-0.0273759384728071
2024-06-27 15:32:12.484000,-0.033235671122505
2024-06-27 15:32:12.488000,-0.0371726789965207
2024-06-27 15:32:12.492000,-0.037905145577733
2024-06-27 15:32:12.496000,-0.0351583958981871
2024-06-27 15:32:12.500000,-0.0283830800219739
2024-06-27 15:32:12.504000,-0.0191356894341695
2024-06-27 15:32:12.508000,-0.0116279069767441
2024-06-27 15:32:12.512000,-0.0083318073612891
2024-06-27 15:32:12.516000,-0.0075993407800769
2024-06-27 15:32:12.520000,-0.0068668741988646
2024-06-27 15:32:12.524000,-0.0052188243911371
2024-06-27 15:32:12.528000,-0.0023805163889397
2024-06-27 15:32:12.532000,0.003296099615455
2024-06-27 15:32:12.536000,0.0129097234938655
2024-06-27 15:32:12.540000,0.0245376304706097
2024-06-27 15:32:12.544000,0.0368064457059146
2024-06-27 15:32:12.548000,0.0500824024903863
2024-06-27 15:32:12.552000,0.0641823841787218
2024-06-27 15:32:12.556000,0.0785570408350119
2024-06-27 15:32:12.560000,0.0925654642006958
2024-06-27 15:32:12.564000,0.1038271378868339
2024-06-27 15:32:12.568000,0.1100531038271378
2024-06-27 15:32:12.572000,0.1111518036989562
2024-06-27 15:32:12.576000,0.109045962277971
2024-06-27 15:32:12.580000,0.1062992125984252
2024-06-27 15:32:12.584000,0.1045596044680461
2024-06-27 15:32:12.588000,0.105749862662516
2024-06-27 15:32:12.592000,0.1110602453763047
2024-06-27 15:32:12.596000,0.1196667277055484
2024-06-27 15:32:12.600000,0.1277238600988829
2024-06-27 15:32:12.604000,0.1297381431972166
2024-06-27 15:32:12.608000,0.1233290606116096
2024-06-27 15:32:12.612000,0.1071232375022889
2024-06-27 15:32:12.616000,0.0779161325764512
2024-06-27 15:32:12.620000,0.0413843618384911
2024-06-27 15:32:12.624000,0.0120856985900018
2024-06-27 15:32:12.628000,-0.0045779161325764
2024-06-27 15:32:12.632000,-0.0148324482695477
2024-06-27 15:32:12.636000,-0.0238051638893975
2024-06-27 15:32:12.640000,-0.0326863211865958
2024-06-27 15:32:12.644000,-0.0416590368064457
2024-06-27 15:32:12.648000,-0.0508148690715986
2024-06-27 15:32:12.652000,-0.0604284929500091
2024-06-27 15:32:12.656000,-0.069401208569859
2024-06-27 15:32:12.660000,-0.0752609412195568
2024-06-27 15:32:12.664000,-0.077549899285845
2024-06-27 15:32:12.668000,-0.0787401574803149
2024-06-27 15:32:12.672000,-0.0814869071598608
2024-06-27 15:32:12.676000,-0.0856070316791796
2024-06-27 15:32:12.680000,-0.0881706647134224
2024-06-27 15:32:12.684000,-0.086888848196301
2024-06-27 15:32:12.688000,-0.0826771653543307
2024-06-27 15:32:12.692000,-0.0797472990294817
2024-06-27 15:32:12.696000,-0.0813037905145577
2024-06-27 15:32:12.700000,-0.0857901483244827
2024-06-27 15:32:12.704000,-0.0900933894891045
2024-06-27 15:32:12.708000,-0.0918329976194836
2024-06-27 15:32:12.712000,-0.0902765061344076
2024-06-27 15:32:12.716000,-0.0867972898736495
2024-06-27 15:32:12.720000,-0.0830433986449368
2024-06-27 15:32:12.724000,-0.0793810657388756
2024-06-27 15:32:12.728000,-0.0765427577366782
2024-06-27 15:32:12.732000,-0.0751693828969053
2024-06-27 15:32:12.736000,-0.0747115912836476
2024-06-27 15:32:12.740000,-0.0748947079289507
2024-06-27 15:32:12.744000,-0.0764511994140267
2024-06-27 15:32:12.748000,-0.0798388573521333
2024-06-27 15:32:12.752000,-0.0829518403222853
2024-06-27 15:32:12.756000,-0.0824940487090276
2024-06-27 15:32:12.760000,-0.0786485991576634
2024-06-27 15:32:12.764000,-0.0748947079289507
2024-06-27 15:32:12.768000,-0.0735213330891778
2024-06-27 15:32:12.772000,-0.0737960080571323
2024-06-27 15:32:12.776000,-0.0745284746383446
2024-06-27 15:32:12.780000,-0.0748031496062992
2024-06-27 15:32:12.784000,-0.0737044497344808
2024-06-27 15:32:12.788000,-0.071140816700238
2024-06-27 15:32:12.792000,-0.0683940670206921
2024-06-27 15:32:12.796000,-0.0660135506317524
2024-06-27 15:32:12.800000,-0.0629921259842519
2024-06-27 15:32:12.804000,-0.0586888848196301
2024-06-27 15:32:12.808000,-0.0539278520417505
2024-06-27 15:32:12.812000,-0.0498992858450833
2024-06-27 15:32:12.816000,-0.0464200695843252
2024-06-27 15:32:12.820000,-0.0425746200329609
2024-06-27 15:32:12.824000,-0.0389122871268998
2024-06-27 15:32:12.828000,-0.0371726789965207
2024-06-27 15:32:12.832000,-0.0371726789965207
2024-06-27 15:32:12.836000,-0.0377220289324299
2024-06-27 15:32:12.840000,-0.037905145577733
2024-06-27 15:32:12.844000,-0.0366233290606116
2024-06-27 15:32:12.848000,-0.033235671122505
2024-06-27 15:32:12.852000,-0.0289324299578831
2024-06-27 15:32:12.856000,-0.025453213697125
2024-06-27 15:32:12.860000,-0.0240798388573521
2024-06-27 15:32:12.864000,-0.0249954220838674
2024-06-27 15:32:12.868000,-0.0275590551181102
2024-06-27 15:32:12.872000,-0.030122688152353
2024-06-27 15:32:12.876000,-0.0311298297015198
2024-06-27 15:32:12.880000,-0.0308551547335652
2024-06-27 15:32:12.884000,-0.0304889214429591
2024-06-27 15:32:12.888000,-0.0325032045412928
2024-06-27 15:32:12.892000,-0.0388207288042483
2024-06-27 15:32:12.896000,-0.047427211133492
2024-06-27 15:32:12.900000,-0.053653177073796
2024-06-27 15:32:12.904000,-0.0548434352682658
2024-06-27 15:32:12.908000,-0.0526460355246291
2024-06-27 15:32:12.912000,-0.0498992858450833
2024-06-27 15:32:12.916000,-0.0477018861014466
2024-06-27 15:32:12.920000,-0.0455960446804614
2024-06-27 15:32:12.924000,-0.0440395531953854
2024-06-27 15:32:12.928000,-0.0433986449368247
2024-06-27 15:32:12.932000,-0.0424830617103094
2024-06-27 15:32:12.936000,-0.0399194286760666
2024-06-27 15:32:12.940000,-0.0357077458340963
2024-06-27 15:32:12.944000,-0.0310382713788683
2024-06-27 15:32:12.948000,-0.0264603552462918
2024-06-27 15:32:12.952000,-0.0225233473722761
2024-06-27 15:32:12.956000,-0.0189525727888665
2024-06-27 15:32:12.960000,-0.0145577733015931
2024-06-27 15:32:12.964000,-0.0107123237502288
2024-06-27 15:32:12.968000,-0.0108038820728804
2024-06-27 15:32:12.972000,-0.0158395898187145
2024-06-27 15:32:12.976000,-0.0233473722761399
2024-06-27 15:32:12.980000,-0.0292071049258377
2024-06-27 15:32:12.984000,-0.0319538546053836
2024-06-27 15:32:12.988000,-0.0322285295733382
2024-06-27 15:32:12.992000,-0.0282915216993224
2024-06-27 15:32:12.996000,-0.017487639626442
2024-06-27 15:32:13.000000,-0.0025636330342428
2024-06-27 15:32:13.004000,0.0099798571690166
2024-06-27 15:32:13.008000,0.0177623145943966
2024-06-27 15:32:13.012000,0.02215711408167
2024-06-27 15:32:13.016000,0.025270097051822
2024-06-27 15:32:13.020000,0.0287493133125801
2024-06-27 15:32:13.024000,0.0321369712506866
2024-06-27 15:32:13.028000,0.0341512543490203
2024-06-27 15:32:13.032000,0.0352499542208386
2024-06-27 15:32:13.036000,0.0366233290606116
2024-06-27 15:32:13.040000,0.0381798205456876
2024-06-27 15:32:13.044000,0.0387291704815967
2024-06-27 15:32:13.048000,0.0357993041567478
2024-06-27 15:32:13.052000,0.0272843801501556
2024-06-27 15:32:13.056000,0.0146493316242446
2024-06-27 15:32:13.060000,0.0026551913568943
2024-06-27 15:32:13.064000,-0.0047610327778795
2024-06-27 15:32:13.068000,-0.0075993407800769
2024-06-27 15:32:13.072000,-0.0091558322651529
2024-06-27 15:32:13.076000,-0.0132759567844717
2024-06-27 15:32:13.080000,-0.0199597143380333
2024-06-27 15:32:13.084000,-0.0231642556308368
2024-06-27 15:32:13.088000,-0.02215711408167
2024-06-27 15:32:13.092000,-0.0208752975645486
2024-06-27 15:32:13.096000,-0.0104376487822743
2024-06-27 15:32:13.100000,0.0216077641457608
2024-06-27 15:32:13.104000,0.077549899285845
2024-06-27 15:32:13.108000,0.1588536898004028
2024-06-27 15:32:13.112000,0.2548983702618568
2024-06-27 15:32:13.116000,0.334370994323384
2024-06-27 15:32:13.120000,0.3689800402856619
2024-06-27 15:32:13.124000,0.348745650979674
2024-06-27 15:32:13.128000,0.2799853506683757
2024-06-27 15:32:13.132000,0.1743270463285112
2024-06-27 15:32:13.136000,0.0523713605566746
2024-06-27 15:32:13.140000,-0.0640908258560703
2024-06-27 15:32:13.144000,-0.1651712140633583
2024-06-27 15:32:13.148000,-0.2337483977293536
2024-06-27 15:32:13.152000,-0.2499542208386742
2024-06-27 15:32:13.156000,-0.2158029664896539
2024-06-27 15:32:13.160000,-0.1518036989562351
2024-06-27 15:32:13.164000,-0.0911005310382713
2024-06-27 15:32:13.168000,-0.0580479765610694
2024-06-27 15:32:13.172000,-0.0457791613257645
2024-06-27 15:32:13.176000,-0.0357077458340963
2024-06-27 15:32:13.180000,-0.0220655557590184
2024-06-27 15:32:13.184000,-0.0083318073612891
2024-06-27 15:32:13.188000,0.0035707745834096
2024-06-27 15:32:13.192000,0.0141915400109869
2024-06-27 15:32:13.196000,0.025270097051822
2024-06-27 15:32:13.200000,0.0351583958981871
2024-06-27 15:32:13.204000,0.0357077458340963
2024-06-27 15:32:13.208000,0.0231642556308368
2024-06-27 15:32:13.212000,0.0042116828419703
2024-06-27 15:32:13.216000,-0.0130012818165171
2024-06-27 15:32:13.220000,-0.0250869804065189
2024-06-27 15:32:13.224000,-0.0296648965390954
2024-06-27 15:32:13.228000,-0.0267350302142464
2024-06-27 15:32:13.232000,-0.0205090642739425
2024-06-27 15:32:13.236000,-0.0140999816883354
2024-06-27 15:32:13.240000,-0.006409082585607
2024-06-27 15:32:13.244000,0.0031129829701519
2024-06-27 15:32:13.248000,0.0130928401391686
2024-06-27 15:32:13.252000,0.0216077641457608
2024-06-27 15:32:13.256000,0.0281084050540194
2024-06-27 15:32:13.260000,0.0318622962827321
2024-06-27 15:32:13.264000,0.0289324299578831
2024-06-27 15:32:13.268000,0.0197765976927302
2024-06-27 15:32:13.272000,0.0119025819446987
2024-06-27 15:32:13.276000,0.0090642739425013
2024-06-27 15:32:13.280000,0.009522065555759
2024-06-27 15:32:13.284000,0.0122688152353048
2024-06-27 15:32:13.288000,0.0183116645303058
2024-06-27 15:32:13.292000,0.0261856802783373
2024-06-27 15:32:13.296000,0.0320454129280351
2024-06-27 15:32:13.300000,0.034975279252884
2024-06-27 15:32:13.304000,0.0379967039003845
2024-06-27 15:32:13.308000,0.0432155282915217
2024-06-27 15:32:13.312000,0.0488005859732649
2024-06-27 15:32:13.316000,0.0531953854605383
2024-06-27 15:32:13.320000,0.0585973264969785
2024-06-27 15:32:13.324000,0.0673869254715253
2024-06-27 15:32:13.328000,0.0815784654825123
2024-06-27 15:32:13.332000,0.1005310382713788
2024-06-27 15:32:13.336000,0.1196667277055484
2024-06-27 15:32:13.340000,0.1338582677165354
2024-06-27 15:32:13.344000,0.1409998168833547
2024-06-27 15:32:13.348000,0.1423731917231276
2024-06-27 15:32:13.352000,0.1409998168833547
2024-06-27 15:32:13.356000,0.1393517670756272
2024-06-27 15:32:13.360000,0.1394433253982787
2024-06-27 15:32:13.364000,0.1445705914667643
2024-06-27 15:32:13.368000,0.1549166819263871
2024-06-27 15:32:13.372000,0.1639809558688884
2024-06-27 15:32:13.376000,0.1652627723860099
2024-06-27 15:32:13.380000,0.157846548251236
2024-06-27 15:32:13.384000,0.1415491668192638
2024-06-27 15:32:13.388000,0.120124519318806
2024-06-27 15:32:13.392000,0.1032777879509247
2024-06-27 15:32:13.396000,0.0926570225233473
2024-06-27 15:32:13.400000,0.0784654825123603
2024-06-27 15:32:13.404000,0.055209668558872
2024-06-27 15:32:13.408000,0.0283830800219739
2024-06-27 15:32:13.412000,0.0069584325215162
2024-06-27 15:32:13.416000,-0.0052188243911371
2024-06-27 15:32:13.420000,-0.009522065555759
2024-06-27 15:32:13.424000,-0.0085149240065921
2024-06-27 15:32:13.428000,-0.0049441494231825
2024-06-27 15:32:13.432000,-0.0006409082585607
2024-06-27 15:32:13.436000,0.0022889580662882
2024-06-27 15:32:13.440000,0.000183116645303
2024-06-27 15:32:13.444000,-0.0119025819446987
2024-06-27 15:32:13.448000,-0.0321369712506866
2024-06-27 15:32:13.452000,-0.0509979857169016
2024-06-27 15:32:13.456000,-0.0622596594030397
2024-06-27 15:32:13.460000,-0.0661051089544039
2024-06-27 15:32:13.464000,-0.0650064090825856
2024-06-27 15:32:13.468000,-0.0612525178538729
2024-06-27 15:32:13.472000,-0.0564914850759934
2024-06-27 15:32:13.476000,-0.05209668558872
2024-06-27 15:32:13.480000,-0.0502655191356894
2024-06-27 15:32:13.484000,-0.0533785021058414
2024-06-27 15:32:13.488000,-0.0601538179820545
2024-06-27 15:32:13.492000,-0.0684856253433437
2024-06-27 15:32:13.496000,-0.0785570408350119
2024-06-27 15:32:13.500000,-0.0867972898736495
2024-06-27 15:32:13.504000,-0.0863394982603918
2024-06-27 15:32:13.508000,-0.0748947079289507
2024-06-27 15:32:13.512000,-0.0594213514008423
2024-06-27 15:32:13.516000,-0.0498992858450833
2024-06-27 15:32:13.520000,-0.0488921442959165
2024-06-27 15:32:13.524000,-0.0508148690715986
2024-06-27 15:32:13.528000,-0.0509979857169016
2024-06-27 15:32:13.532000,-0.0500824024903863
2024-06-27 15:32:13.536000,-0.0509064273942501
2024-06-27 15:32:13.540000,-0.0561252517853872
2024-06-27 15:32:13.544000,-0.0644570591466764
2024-06-27 15:32:13.548000,-0.0700421168284197
2024-06-27 15:32:13.552000,-0.0691265336019044
2024-06-27 15:32:13.556000,-0.0661966672770554
2024-06-27 15:32:13.560000,-0.0654642006958432
2024-06-27 15:32:13.564000,-0.0653726423731917
2024-06-27 15:32:13.568000,-0.0626258926936458
2024-06-27 15:32:13.572000,-0.0563999267533418
2024-06-27 15:32:13.576000,-0.0481596777147042
2024-06-27 15:32:13.580000,-0.0406518952572788
2024-06-27 15:32:13.584000,-0.03653177073796
2024-06-27 15:32:13.588000,-0.0357077458340963
2024-06-27 15:32:13.592000,-0.0364402124153085
2024-06-27 15:32:13.596000,-0.0375389122871269
2024-06-27 15:32:13.600000,-0.0391869620948544
2024-06-27 15:32:13.604000,-0.0415674784837941
2024-06-27 15:32:13.608000,-0.0438564365500824
2024-06-27 15:32:13.612000,-0.0457791613257645
2024-06-27 15:32:13.616000,-0.0482512360373557
2024-06-27 15:32:13.620000,-0.0509979857169016
2024-06-27 15:32:13.624000,-0.0534700604284929
2024-06-27 15:32:13.628000,-0.0550265519135689
2024-06-27 15:32:13.632000,-0.0560336934627357
2024-06-27 15:32:13.636000,-0.0575901849478117
2024-06-27 15:32:13.640000,-0.0602453763047061
2024-06-27 15:32:13.644000,-0.063358359274858
2024-06-27 15:32:13.648000,-0.066288225599707
2024-06-27 15:32:13.652000,-0.0690349752792528
2024-06-27 15:32:13.656000,-0.0726057498626625
2024-06-27 15:32:13.660000,-0.0760849661234206
2024-06-27 15:32:13.664000,-0.0756271745101629
2024-06-27 15:32:13.668000,-0.068027833730086
2024-06-27 15:32:13.672000,-0.0531953854605383
2024-06-27 15:32:13.676000,-0.03653177073796
2024-06-27 15:32:13.680000,-0.0293902215711408
2024-06-27 15:32:13.684000,-0.0402856619666727
2024-06-27 15:32:13.688000,-0.0625343343709943
2024-06-27 15:32:13.692000,-0.0823109320637246
2024-06-27 15:32:13.696000,-0.0951290972349386
2024-06-27 15:32:13.700000,-0.1019959714338033
2024-06-27 15:32:13.704000,-0.1008057132393334
2024-06-27 15:32:13.708000,-0.0896355978758469
2024-06-27 15:32:13.712000,-0.0714154916681926
2024-06-27 15:32:13.716000,-0.0534700604284929
2024-06-27 15:32:13.720000,-0.0431239699688701
2024-06-27 15:32:13.724000,-0.0433070866141732
2024-06-27 15:32:13.728000,-0.0500824024903863
2024-06-27 15:32:13.732000,-0.0573155099798571
2024-06-27 15:32:13.736000,-0.0623512177256912
2024-06-27 15:32:13.740000,-0.0641823841787218
2024-06-27 15:32:13.744000,-0.0628090093389489
2024-06-27 15:32:13.748000,-0.0607031679179637
2024-06-27 15:32:13.752000,-0.0596044680461453
2024-06-27 15:32:13.756000,-0.0593297930781908
2024-06-27 15:32:13.760000,-0.0592382347555392
2024-06-27 15:32:13.764000,-0.0593297930781908
2024-06-27 15:32:13.768000,-0.0607031679179637
2024-06-27 15:32:13.772000,-0.0640908258560703
2024-06-27 15:32:13.776000,-0.0689434169566013
2024-06-27 15:32:13.780000,-0.0730635414759201
2024-06-27 15:32:13.784000,-0.0737044497344808
2024-06-27 15:32:13.788000,-0.0672038088262223
2024-06-27 15:32:13.792000,-0.0517304522981139
2024-06-27 15:32:13.796000,-0.0324116462186412
2024-06-27 15:32:13.800000,-0.0185863394982603
2024-06-27 15:32:13.804000,-0.0139168650430324
2024-06-27 15:32:13.808000,-0.0145577733015931
2024-06-27 15:32:13.812000,-0.0165720563999267
2024-06-27 15:32:13.816000,-0.0183116645303058
2024-06-27 15:32:13.820000,-0.0189525727888665
2024-06-27 15:32:13.824000,-0.0163889397546236
2024-06-27 15:32:13.828000,-0.0084233656839406
2024-06-27 15:32:13.832000,0.0022889580662882
2024-06-27 15:32:13.836000,0.0098882988463651
2024-06-27 15:32:13.840000,0.0108954403955319
2024-06-27 15:32:13.844000,0.0073246658121223
2024-06-27 15:32:13.848000,0.0034792162607581
2024-06-27 15:32:13.852000,0.0008240249038637
2024-06-27 15:32:13.856000,-0.0028383080021973
2024-06-27 15:32:13.860000,-0.0108038820728804
2024-06-27 15:32:13.864000,-0.0227980223402307
2024-06-27 15:32:13.868000,-0.0347006042849295
2024-06-27 15:32:13.872000,-0.0453213697125068
2024-06-27 15:32:13.876000,-0.0574986266251602
2024-06-27 15:32:13.880000,-0.0684856253433437
2024-06-27 15:32:13.884000,-0.0726057498626625
2024-06-27 15:32:13.888000,-0.0719648416041018
2024-06-27 15:32:13.892000,-0.0781908075444057
2024-06-27 15:32:13.896000,-0.0981505218824391
2024-06-27 15:32:13.900000,-0.1169199780260025
2024-06-27 15:32:13.904000,-0.1080388207288042
2024-06-27 15:32:13.908000,-0.0617103094671305
2024-06-27 15:32:13.912000,0.0098882988463651
2024-06-27 15:32:13.916000,0.0959531221388024
2024-06-27 15:32:13.920000,0.1896172862113166
2024-06-27 15:32:13.924000,0.2708295184032228
2024-06-27 15:32:13.928000,0.3163340047610328
2024-06-27 15:32:13.932000,0.306171030946713
2024-06-27 15:32:13.936000,0.224134773850943
2024-06-27 15:32:13.940000,0.0856070316791796
2024-06-27 15:32:13.944000,-0.0650064090825856
2024-06-27 15:32:13.948000,-0.1902581944698773
2024-06-27 15:32:13.952000,-0.2678996520783739
2024-06-27 15:32:13.956000,-0.2889580662882256
2024-06-27 15:32:13.960000,-0.2629555026551913
2024-06-27 15:32:13.964000,-0.2164438747482146
2024-06-27 15:32:13.968000,-0.1713971800036623
2024-06-27 15:32:13.972000,-0.1369712506866874
2024-06-27 15:32:13.976000,-0.1164621864127449
2024-06-27 15:32:13.980000,-0.1050173960813038
2024-06-27 15:32:13.984000,-0.0928401391686504
2024-06-27 15:32:13.988000,-0.0769089910272843
2024-06-27 15:32:13.992000,-0.0622596594030397
2024-06-27 15:32:13.996000,-0.0542025270097051
2024-06-27 15:32:14.000000,-0.0526460355246291
2024-06-27 15:32:14.004000,-0.0531953854605383
2024-06-27 15:32:14.008000,-0.0531953854605383
2024-06-27 15:32:14.012000,-0.0521882439113715
2024-06-27 15:32:14.016000,-0.0506317524262955
2024-06-27 15:32:14.020000,-0.0480681193920527
2024-06-27 15:32:14.024000,-0.0435817615821278
2024-06-27 15:32:14.028000,-0.0368980040285661
2024-06-27 15:32:14.032000,-0.0286577549899285
2024-06-27 15:32:14.036000,-0.0205090642739425
2024-06-27 15:32:14.040000,-0.0139168650430324
2024-06-27 15:32:14.044000,-0.009522065555759
2024-06-27 15:32:14.048000,-0.0065006409082585
2024-06-27 15:32:14.052000,-0.0040285661966672
2024-06-27 15:32:14.056000,-0.0025636330342428
2024-06-27 15:32:14.060000,-0.0021058414209851
2024-06-27 15:32:14.064000,-0.0010986998718183
2024-06-27 15:32:14.068000,0.0020142830983336
2024-06-27 15:32:14.072000,0.00659219923091
2024-06-27 15:32:14.076000,0.0096136238784105
2024-06-27 15:32:14.080000,0.0099798571690166
2024-06-27 15:32:14.084000,0.0090642739425013
2024-06-27 15:32:14.088000,0.0102545321369712
2024-06-27 15:32:14.092000,0.0155649148507599
2024-06-27 15:32:14.096000,0.0227980223402307
2024-06-27 15:32:14.100000,0.026826588536898
2024-06-27 15:32:14.104000,0.0260941219556857
2024-06-27 15:32:14.108000,0.023713605566746
2024-06-27 15:32:14.112000,0.0238051638893975
2024-06-27 15:32:14.116000,0.0283830800219739
2024-06-27 15:32:14.120000,0.0385460538362937
2024-06-27 15:32:14.124000,0.0525544772019776
2024-06-27 15:32:14.128000,0.0666544588903131
2024-06-27 15:32:14.132000,0.0802966489653909
2024-06-27 15:32:14.136000,0.094671305621681
2024-06-27 15:32:14.140000,0.1081303790514557
2024-06-27 15:32:14.144000,0.1182933528657755
2024-06-27 15:32:14.148000,0.1264420435817616
2024-06-27 15:32:14.152000,0.134316059329793
2024-06-27 15:32:14.156000,0.1409082585607031
2024-06-27 15:32:14.160000,0.1475920161142647
2024-06-27 15:32:14.164000,0.1591283647683574
2024-06-27 15:32:14.168000,0.1742354880058597
2024-06-27 15:32:14.172000,0.1855887200146493
2024-06-27 15:32:14.176000,0.1891594945980589
2024-06-27 15:32:14.180000,0.1864127449185131
2024-06-27 15:32:14.184000,0.1783556125251785
2024-06-27 15:32:14.188000,0.1646218641274492
2024-06-27 15:32:14.192000,0.1457608496612342
2024-06-27 15:32:14.196000,0.126167368613807
2024-06-27 15:32:14.200000,0.1108771287310016
2024-06-27 15:32:14.204000,0.0990661051089544
2024-06-27 15:32:14.208000,0.0859732649697857
2024-06-27 15:32:14.212000,0.0700421168284197
2024-06-27 15:32:14.216000,0.0535616187511444
2024-06-27 15:32:14.220000,0.0383629371909906
2024-06-27 15:32:14.224000,0.0246291887932613
2024-06-27 15:32:14.228000,0.0125434902032594
2024-06-27 15:32:14.232000,0.0026551913568943
2024-06-27 15:32:14.236000,-0.0059512909723493
2024-06-27 15:32:14.240000,-0.0151986815601538
2024-06-27 15:32:14.244000,-0.0248123054385643
2024-06-27 15:32:14.248000,-0.0339681377037172
2024-06-27 15:32:14.252000,-0.041201245193188
2024-06-27 15:32:14.256000,-0.0457791613257645
2024-06-27 15:32:14.260000,-0.0482512360373557
2024-06-27 15:32:14.264000,-0.0496246108771287
2024-06-27 15:32:14.268000,-0.0499908441677348
2024-06-27 15:32:14.272000,-0.0486174693279619
2024-06-27 15:32:14.276000,-0.0455960446804614
2024-06-27 15:32:14.280000,-0.0414759201611426
2024-06-27 15:32:14.284000,-0.0371726789965207
2024-06-27 15:32:14.288000,-0.0342428126716718
2024-06-27 15:32:14.292000,-0.0333272294451565
2024-06-27 15:32:14.296000,-0.033418787767808
2024-06-27 15:32:14.300000,-0.0333272294451565
2024-06-27 15:32:14.304000,-0.0328694378318989
2024-06-27 15:32:14.308000,-0.0330525544772019
2024-06-27 15:32:14.312000,-0.034975279252884
2024-06-27 15:32:14.316000,-0.0398278703534151
2024-06-27 15:32:14.320000,-0.0477018861014466
2024-06-27 15:32:14.324000,-0.0570408350119025
2024-06-27 15:32:14.328000,-0.0651895257278886
2024-06-27 15:32:14.332000,-0.070957700054935
2024-06-27 15:32:14.336000,-0.0739791247024354
2024-06-27 15:32:14.340000,-0.0717817249587987
2024-06-27 15:32:14.344000,-0.0612525178538729
2024-06-27 15:32:14.348000,-0.0436733199047793
2024-06-27 15:32:14.352000,-0.0260025636330342
2024-06-27 15:32:14.356000,-0.0146493316242446
2024-06-27 15:32:14.360000,-0.0109869987181834
2024-06-27 15:32:14.364000,-0.0130928401391686
2024-06-27 15:32:14.368000,-0.0175791979490935
2024-06-27 15:32:14.372000,-0.0210584142098516
2024-06-27 15:32:14.376000,-0.0222486724043215
2024-06-27 15:32:14.380000,-0.02215711408167
2024-06-27 15:32:14.384000,-0.0220655557590184
2024-06-27 15:32:14.388000,-0.0220655557590184
2024-06-27 15:32:14.392000,-0.0220655557590184
2024-06-27 15:32:14.396000,-0.02215711408167
2024-06-27 15:32:14.400000,-0.0233473722761399
2024-06-27 15:32:14.404000,-0.0260941219556857
2024-06-27 15:32:14.408000,-0.0287493133125801
2024-06-27 15:32:14.412000,-0.028566196667277
2024-06-27 15:32:14.416000,-0.025453213697125
2024-06-27 15:32:14.420000,-0.0218824391137154
2024-06-27 15:32:14.424000,-0.0196850393700787
2024-06-27 15:32:14.428000,-0.0188610144662149
2024-06-27 15:32:14.432000,-0.0191356894341695
2024-06-27 15:32:14.436000,-0.0205090642739425
2024-06-27 15:32:14.440000,-0.0234389305987914
2024-06-27 15:32:14.444000,-0.0273759384728071
2024-06-27 15:32:14.448000,-0.0303973631203076
2024-06-27 15:32:14.452000,-0.0293902215711408
2024-06-27 15:32:14.456000,-0.0240798388573521
2024-06-27 15:32:14.460000,-0.0178538729170481
2024-06-27 15:32:14.464000,-0.0141915400109869
2024-06-27 15:32:14.468000,-0.0135506317524262
2024-06-27 15:32:14.472000,-0.0140999816883354
2024-06-27 15:32:14.476000,-0.0147408899468961
2024-06-27 15:32:14.480000,-0.0150155649148507
2024-06-27 15:32:14.484000,-0.0142830983336385
2024-06-27 15:32:14.488000,-0.0108954403955319
2024-06-27 15:32:14.492000,-0.004852591100531
2024-06-27 15:32:14.496000,0.0015564914850759
2024-06-27 15:32:14.500000,0.0056766160043947
2024-06-27 15:32:14.504000,0.0043947994872733
2024-06-27 15:32:14.508000,-0.0024720747115912
2024-06-27 15:32:14.512000,-0.0108038820728804
