Device ID,Timestamp,ECG Voltage (mV)
2611844290,2024-07-03 16:53:30.674000,0.0
2611844290,2024-07-03 16:53:30.678000,-0.0007324665812122322
2611844290,2024-07-03 16:53:30.682000,-0.0012818165171214063
2611844290,2024-07-03 16:53:30.686000,-0.0004577916132576451
2611844290,2024-07-03 16:53:30.690000,0.004028566196667277
2611844290,2024-07-03 16:53:30.694000,0.011627906976744186
2611844290,2024-07-03 16:53:30.698000,0.01693828969053287
2611844290,2024-07-03 16:53:30.702000,0.018220106207654276
2611844290,2024-07-03 16:53:30.706000,0.020234389305987914
2611844290,2024-07-03 16:53:30.710000,0.024903863761215894
2611844290,2024-07-03 16:53:30.714000,0.031312946346822926
2611844290,2024-07-03 16:53:30.718000,0.037996703900384544
2611844290,2024-07-03 16:53:30.722000,0.04120124519318806
2611844290,2024-07-03 16:53:30.726000,0.045321369712506866
2611844290,2024-07-03 16:53:30.730000,0.05978758469144845
2611844290,2024-07-03 16:53:30.734000,0.08047976561069402
2611844290,2024-07-03 16:53:30.738000,0.09567844717084784
2611844290,2024-07-03 16:53:30.742000,0.09577000549349936
2611844290,2024-07-03 16:53:30.746000,0.0807544405786486
2611844290,2024-07-03 16:53:30.750000,0.07205639992675335
2611844290,2024-07-03 16:53:30.754000,0.0914667643288775
2611844290,2024-07-03 16:53:30.758000,0.13394982603918695
2611844290,2024-07-03 16:53:30.762000,0.19007507782457425
2611844290,2024-07-03 16:53:30.766000,0.25544772019776596
2611844290,2024-07-03 16:53:30.770000,0.3109320637245926
2611844290,2024-07-03 16:53:30.774000,0.334370994323384
2611844290,2024-07-03 16:53:30.778000,0.32677165354330706
2611844290,2024-07-03 16:53:30.782000,0.3142281633400476
2611844290,2024-07-03 16:53:30.786000,0.3113898553378502
2611844290,2024-07-03 16:53:30.790000,0.2947262406152719
2611844290,2024-07-03 16:53:30.794000,0.23887566379783923
2611844290,2024-07-03 16:53:30.798000,0.1489653909540377
2611844290,2024-07-03 16:53:30.802000,0.04248306171030947
2611844290,2024-07-03 16:53:30.806000,-0.05356161875114448
2611844290,2024-07-03 16:53:30.810000,-0.08908624793993775
2611844290,2024-07-03 16:53:30.814000,-0.04486357809924922
2611844290,2024-07-03 16:53:30.818000,0.024537630470609778
2611844290,2024-07-03 16:53:30.822000,0.06564731734114632
2611844290,2024-07-03 16:53:30.826000,0.0772752243178905
2611844290,2024-07-03 16:53:30.830000,0.07324665812122322
2611844290,2024-07-03 16:53:30.834000,0.0637245925654642
2611844290,2024-07-03 16:53:30.838000,0.05932979307819081
2611844290,2024-07-03 16:53:30.842000,0.06454861746932797
2611844290,2024-07-03 16:53:30.846000,0.07901483244826955
2611844290,2024-07-03 16:53:30.850000,0.0984251968503937
2611844290,2024-07-03 16:53:30.854000,0.1141732283464567
2611844290,2024-07-03 16:53:30.858000,0.12076542757736679
2611844290,2024-07-03 16:53:30.862000,0.11930049441494232
2611844290,2024-07-03 16:53:30.866000,0.11197582860282
2611844290,2024-07-03 16:53:30.870000,0.0990661051089544
2611844290,2024-07-03 16:53:30.874000,0.08386742354880058
2611844290,2024-07-03 16:53:30.878000,0.07333821644387475
2611844290,2024-07-03 16:53:30.882000,0.07077458340963194
2611844290,2024-07-03 16:53:30.886000,0.07352133308917781
2611844290,2024-07-03 16:53:30.890000,0.07590184947811757
2611844290,2024-07-03 16:53:30.894000,0.07141549166819264
2611844290,2024-07-03 16:53:30.898000,0.05502655191356894
2611844290,2024-07-03 16:53:30.902000,0.030397363120307636
2611844290,2024-07-03 16:53:30.906000,0.009522065555759018
2611844290,2024-07-03 16:53:30.910000,0.00027467496795458707
2611844290,2024-07-03 16:53:30.914000,0.0026551913568943417
2611844290,2024-07-03 16:53:30.918000,0.01400842336568394
2611844290,2024-07-03 16:53:30.922000,0.029481779893792345
2611844290,2024-07-03 16:53:30.926000,0.04220838674235488
2611844290,2024-07-03 16:53:30.930000,0.048251236037355795
2611844290,2024-07-03 16:53:30.934000,0.04797656106940121
2611844290,2024-07-03 16:53:30.938000,0.044497344808643105
2611844290,2024-07-03 16:53:30.942000,0.04046877861197583
2611844290,2024-07-03 16:53:30.946000,0.03717267899652078
2611844290,2024-07-03 16:53:30.950000,0.036073979124702435
2611844290,2024-07-03 16:53:30.954000,0.040743453579930415
2611844290,2024-07-03 16:53:30.958000,0.05356161875114448
2611844290,2024-07-03 16:53:30.962000,0.07077458340963194
2611844290,2024-07-03 16:53:30.966000,0.0845083318073613
2611844290,2024-07-03 16:53:30.970000,0.09219923091008973
2611844290,2024-07-03 16:53:30.974000,0.09787584691448453
2611844290,2024-07-03 16:53:30.978000,0.10620765427577367
2611844290,2024-07-03 16:53:30.982000,0.11811023622047244
2611844290,2024-07-03 16:53:30.986000,0.13111151803698956
2611844290,2024-07-03 16:53:30.990000,0.13907709210767258
2611844290,2024-07-03 16:53:30.994000,0.13266800952206556
2611844290,2024-07-03 16:53:30.998000,0.10437648782274309
2611844290,2024-07-03 16:53:31.002000,0.061344076176524445
2611844290,2024-07-03 16:53:31.006000,0.024903863761215894
2611844290,2024-07-03 16:53:31.010000,0.008881157297198315
2611844290,2024-07-03 16:53:31.014000,0.010895440395531954
2611844290,2024-07-03 16:53:31.018000,0.02169932246841238
2611844290,2024-07-03 16:53:31.022000,0.03167917963742904
2611844290,2024-07-03 16:53:31.026000,0.033327229445156564
2611844290,2024-07-03 16:53:31.030000,0.02636879692364036
2611844290,2024-07-03 16:53:31.034000,0.01492400659219923
2611844290,2024-07-03 16:53:31.038000,-0.0012818165171214063
2611844290,2024-07-03 16:53:31.042000,-0.022889580662882256
2611844290,2024-07-03 16:53:31.046000,-0.043490203259476286
2611844290,2024-07-03 16:53:31.050000,-0.052920710492583775
2611844290,2024-07-03 16:53:31.054000,-0.04880058597326497
2611844290,2024-07-03 16:53:31.058000,-0.03964475370811207
2611844290,2024-07-03 16:53:31.062000,-0.03360190441311115
2611844290,2024-07-03 16:53:31.066000,-0.031221388024171397
2611844290,2024-07-03 16:53:31.070000,-0.03158762131477751
2611844290,2024-07-03 16:53:31.074000,-0.036989562351217725
2611844290,2024-07-03 16:53:31.078000,-0.04934993590917414
2611844290,2024-07-03 16:53:31.082000,-0.06555575901849478
2611844290,2024-07-03 16:53:31.086000,-0.07846548251236038
2611844290,2024-07-03 16:53:31.090000,-0.08459989013001282
2611844290,2024-07-03 16:53:31.094000,-0.08707196484160411
2611844290,2024-07-03 16:53:31.098000,-0.09000183116645304
2611844290,2024-07-03 16:53:31.102000,-0.0949459805896356
2611844290,2024-07-03 16:53:31.106000,-0.10071415491668192
2611844290,2024-07-03 16:53:31.110000,-0.1050173960813038
2611844290,2024-07-03 16:53:31.114000,-0.10703167917963743
2611844290,2024-07-03 16:53:31.118000,-0.10703167917963743
2611844290,2024-07-03 16:53:31.122000,-0.10547518769456143
2611844290,2024-07-03 16:53:31.126000,-0.10199597143380333
2611844290,2024-07-03 16:53:31.130000,-0.0968687053653177
2611844290,2024-07-03 16:53:31.134000,-0.0914667643288775
2611844290,2024-07-03 16:53:31.138000,-0.08743819813221022
2611844290,2024-07-03 16:53:31.142000,-0.08624793993774034
2611844290,2024-07-03 16:53:31.146000,-0.08762131477751328
2611844290,2024-07-03 16:53:31.150000,-0.08972715619849844
2611844290,2024-07-03 16:53:31.154000,-0.09009338948910456
2611844290,2024-07-03 16:53:31.158000,-0.08789598974546786
2611844290,2024-07-03 16:53:31.162000,-0.0842336568394067
2611844290,2024-07-03 16:53:31.166000,-0.08084599890130013
2611844290,2024-07-03 16:53:31.170000,-0.07965574070683025
2611844290,2024-07-03 16:53:31.174000,-0.08194469877311848
2611844290,2024-07-03 16:53:31.178000,-0.0886284563266801
2611844290,2024-07-03 16:53:31.182000,-0.09732649697857536
2611844290,2024-07-03 16:53:31.186000,-0.10364402124153085
2611844290,2024-07-03 16:53:31.190000,-0.10574986266251603
2611844290,2024-07-03 16:53:31.194000,-0.1047427211133492
2611844290,2024-07-03 16:53:31.198000,-0.10162973814319722
2611844290,2024-07-03 16:53:31.202000,-0.09750961362387842
2611844290,2024-07-03 16:53:31.206000,-0.09393883904046878
2611844290,2024-07-03 16:53:31.210000,-0.0914667643288775
2611844290,2024-07-03 16:53:31.214000,-0.08963559787584692
2611844290,2024-07-03 16:53:31.218000,-0.08743819813221022
2611844290,2024-07-03 16:53:31.222000,-0.08478300677531588
2611844290,2024-07-03 16:53:31.226000,-0.08185314045046695
2611844290,2024-07-03 16:53:31.230000,-0.07910639077092108
2611844290,2024-07-03 16:53:31.234000,-0.0766343160593298
2611844290,2024-07-03 16:53:31.238000,-0.07471159128364768
2611844290,2024-07-03 16:53:31.242000,-0.07388756637978393
2611844290,2024-07-03 16:53:31.246000,-0.07516938289690533
2611844290,2024-07-03 16:53:31.250000,-0.07828236586705732
2611844290,2024-07-03 16:53:31.254000,-0.08249404870902766
2611844290,2024-07-03 16:53:31.258000,-0.08661417322834646
2611844290,2024-07-03 16:53:31.262000,-0.08936092290789233
2611844290,2024-07-03 16:53:31.266000,-0.09000183116645304
2611844290,2024-07-03 16:53:31.270000,-0.08606482329243728
2611844290,2024-07-03 16:53:31.274000,-0.07672587438198132
2611844290,2024-07-03 16:53:31.278000,-0.06683757553561619
2611844290,2024-07-03 16:53:31.282000,-0.05832265152902399
2611844290,2024-07-03 16:53:31.286000,-0.0517304522981139
2611844290,2024-07-03 16:53:31.290000,-0.05539278520417506
2611844290,2024-07-03 16:53:31.294000,-0.07333821644387475
2611844290,2024-07-03 16:53:31.298000,-0.09531221388024172
2611844290,2024-07-03 16:53:31.302000,-0.10959531221388025
2611844290,2024-07-03 16:53:31.306000,-0.1106940120856986
2611844290,2024-07-03 16:53:31.310000,-0.0971433803332723
2611844290,2024-07-03 16:53:31.314000,-0.07049990844167735
2611844290,2024-07-03 16:53:31.318000,-0.03955319538546054
2611844290,2024-07-03 16:53:31.322000,-0.020234389305987914
2611844290,2024-07-03 16:53:31.326000,-0.029207104925837758
2611844290,2024-07-03 16:53:31.330000,-0.07049990844167735
2611844290,2024-07-03 16:53:31.334000,-0.1176524446072148
2611844290,2024-07-03 16:53:31.338000,-0.12314594396630654
2611844290,2024-07-03 16:53:31.342000,-0.06894341695660136
2611844290,2024-07-03 16:53:31.346000,0.02234023072697308
2611844290,2024-07-03 16:53:31.350000,0.1204907526094122
2611844290,2024-07-03 16:53:31.354000,0.19034975279252883
2611844290,2024-07-03 16:53:31.358000,0.19959714338033327
2611844290,2024-07-03 16:53:31.362000,0.16059329793078192
2611844290,2024-07-03 16:53:31.366000,0.11032777879509248
2611844290,2024-07-03 16:53:31.370000,0.05612525178538729
2611844290,2024-07-03 16:53:31.374000,-0.007141549166819264
2611844290,2024-07-03 16:53:31.378000,-0.07233107489470793
2611844290,2024-07-03 16:53:31.382000,-0.13962644204358177
2611844290,2024-07-03 16:53:31.386000,-0.20380882622230362
2611844290,2024-07-03 16:53:31.390000,-0.2306354147592016
2611844290,2024-07-03 16:53:31.394000,-0.19675883537813588
2611844290,2024-07-03 16:53:31.398000,-0.12186412744918514
2611844290,2024-07-03 16:53:31.402000,-0.04092657022523347
2611844290,2024-07-03 16:53:31.406000,0.01959348104742721
2611844290,2024-07-03 16:53:31.410000,0.04202527009705182
2611844290,2024-07-03 16:53:31.414000,0.03268632118659586
2611844290,2024-07-03 16:53:31.418000,0.016663614722578282
2611844290,2024-07-03 16:53:31.422000,0.005310382713788683
2611844290,2024-07-03 16:53:31.426000,-0.005127266068485625
2611844290,2024-07-03 16:53:31.430000,-0.01593114814136605
2611844290,2024-07-03 16:53:31.434000,-0.022981138985533785
2611844290,2024-07-03 16:53:31.438000,-0.02435451382530672
2611844290,2024-07-03 16:53:31.442000,-0.020417505951290972
2611844290,2024-07-03 16:53:31.446000,-0.011078557040835012
2611844290,2024-07-03 16:53:31.450000,0.0023805163889397546
2611844290,2024-07-03 16:53:31.454000,0.015290239882805347
2611844290,2024-07-03 16:53:31.458000,0.023622047244094488
2611844290,2024-07-03 16:53:31.462000,0.027925288408716352
2611844290,2024-07-03 16:53:31.466000,0.030305804797656107
2611844290,2024-07-03 16:53:31.470000,0.03158762131477751
2611844290,2024-07-03 16:53:31.474000,0.032411646218641274
2611844290,2024-07-03 16:53:31.478000,0.03369346273576268
2611844290,2024-07-03 16:53:31.482000,0.03579930415674785
2611844290,2024-07-03 16:53:31.486000,0.03937007874015748
2611844290,2024-07-03 16:53:31.490000,0.04394799487273393
2611844290,2024-07-03 16:53:31.494000,0.04797656106940121
2611844290,2024-07-03 16:53:31.498000,0.04870902765061344
2611844290,2024-07-03 16:53:31.502000,0.04312396996887017
2611844290,2024-07-03 16:53:31.506000,0.03268632118659586
2611844290,2024-07-03 16:53:31.510000,0.02728438015015565
2611844290,2024-07-03 16:53:31.514000,0.029298663248489287
2611844290,2024-07-03 16:53:31.518000,0.02609412195568577
2611844290,2024-07-03 16:53:31.522000,0.01776231459439663
2611844290,2024-07-03 16:53:31.526000,0.022798022340230727
2611844290,2024-07-03 16:53:31.530000,0.04376487822743087
2611844290,2024-07-03 16:53:31.534000,0.06299212598425197
2611844290,2024-07-03 16:53:31.538000,0.07132393334554112
2611844290,2024-07-03 16:53:31.542000,0.07471159128364768
2611844290,2024-07-03 16:53:31.546000,0.08020509064273942
2611844290,2024-07-03 16:53:31.550000,0.0879875480681194
2611844290,2024-07-03 16:53:31.554000,0.09421351400842337
2611844290,2024-07-03 16:53:31.558000,0.09641091375206007
2611844290,2024-07-03 16:53:31.562000,0.09577000549349936
2611844290,2024-07-03 16:53:31.566000,0.0936641640725142
2611844290,2024-07-03 16:53:31.570000,0.09174143929683208
2611844290,2024-07-03 16:53:31.574000,0.09485442226698407
2611844290,2024-07-03 16:53:31.578000,0.10840505401941036
2611844290,2024-07-03 16:53:31.582000,0.12982970151986817
2611844290,2024-07-03 16:53:31.586000,0.1463101995971434
2611844290,2024-07-03 16:53:31.590000,0.1453946163706281
2611844290,2024-07-03 16:53:31.594000,0.12323750228895806
2611844290,2024-07-03 16:53:31.598000,0.08743819813221022
2611844290,2024-07-03 16:53:31.602000,0.05310382713788683
2611844290,2024-07-03 16:53:31.606000,0.030305804797656107
2611844290,2024-07-03 16:53:31.610000,0.020325947628639443
2611844290,2024-07-03 16:53:31.614000,0.01858633949826039
2611844290,2024-07-03 16:53:31.618000,0.019135689434169566
2611844290,2024-07-03 16:53:31.622000,0.018952572788866508
2611844290,2024-07-03 16:53:31.626000,0.018220106207654276
2611844290,2024-07-03 16:53:31.630000,0.017579197949093572
2611844290,2024-07-03 16:53:31.634000,0.016114264786669108
2611844290,2024-07-03 16:53:31.638000,0.012543490203259476
2611844290,2024-07-03 16:53:31.642000,0.004761032777879509
2611844290,2024-07-03 16:53:31.646000,-0.008606482329243728
2611844290,2024-07-03 16:53:31.650000,-0.025727888665079655
2611844290,2024-07-03 16:53:31.654000,-0.0403772202893243
2611844290,2024-07-03 16:53:31.658000,-0.047244094488188976
2611844290,2024-07-03 16:53:31.662000,-0.047244094488188976
2611844290,2024-07-03 16:53:31.666000,-0.04577916132576451
2611844290,2024-07-03 16:53:31.670000,-0.04587071964841604
2611844290,2024-07-03 16:53:31.674000,-0.04596227797106757
2611844290,2024-07-03 16:53:31.678000,-0.04477201977659769
2611844290,2024-07-03 16:53:31.682000,-0.0432155282915217
2611844290,2024-07-03 16:53:31.686000,-0.04413111151803699
2611844290,2024-07-03 16:53:31.690000,-0.04989928584508332
2611844290,2024-07-03 16:53:31.694000,-0.059604468046145394
2611844290,2024-07-03 16:53:31.698000,-0.06894341695660136
2611844290,2024-07-03 16:53:31.702000,-0.0744369163156931
2611844290,2024-07-03 16:53:31.706000,-0.07645119941402674
2611844290,2024-07-03 16:53:31.710000,-0.07690899102728438
2611844290,2024-07-03 16:53:31.714000,-0.07645119941402674
2611844290,2024-07-03 16:53:31.718000,-0.07590184947811757
2611844290,2024-07-03 16:53:31.722000,-0.07645119941402674
2611844290,2024-07-03 16:53:31.726000,-0.07938106573887567
2611844290,2024-07-03 16:53:31.730000,-0.08350119025819447
2611844290,2024-07-03 16:53:31.734000,-0.08890313129463469
2611844290,2024-07-03 16:53:31.738000,-0.10025636330342429
2611844290,2024-07-03 16:53:31.742000,-0.1182933528657755
2611844290,2024-07-03 16:53:31.746000,-0.13459073429774768
2611844290,2024-07-03 16:53:31.750000,-0.14283098333638528
2611844290,2024-07-03 16:53:31.754000,-0.1438381248855521
2611844290,2024-07-03 16:53:31.758000,-0.14090825856070316
2611844290,2024-07-03 16:53:31.762000,-0.13761215894524811
2611844290,2024-07-03 16:53:31.766000,-0.13623878410547519
2611844290,2024-07-03 16:53:31.770000,-0.1375206006225966
2611844290,2024-07-03 16:53:31.774000,-0.14090825856070316
2611844290,2024-07-03 16:53:31.778000,-0.14457059146676432
2611844290,2024-07-03 16:53:31.782000,-0.14722578282365867
2611844290,2024-07-03 16:53:31.786000,-0.1485991576634316
2611844290,2024-07-03 16:53:31.790000,-0.1485075993407801
2611844290,2024-07-03 16:53:31.794000,-0.14768357443691632
2611844290,2024-07-03 16:53:31.798000,-0.14658487456509797
2611844290,2024-07-03 16:53:31.802000,-0.14804980772752244
2611844290,2024-07-03 16:53:31.806000,-0.15537447353964476
2611844290,2024-07-03 16:53:31.810000,-0.16224134773850943
2611844290,2024-07-03 16:53:31.814000,-0.16324848928767624
2611844290,2024-07-03 16:53:31.818000,-0.16544588903131294
2611844290,2024-07-03 16:53:31.822000,-0.16700238051638894
2611844290,2024-07-03 16:53:31.826000,-0.1571140816700238
2611844290,2024-07-03 16:53:31.830000,-0.1397180003662333
2611844290,2024-07-03 16:53:31.834000,-0.12598425196850394
2611844290,2024-07-03 16:53:31.838000,-0.11875114447903315
2611844290,2024-07-03 16:53:31.842000,-0.11600439479948728
2611844290,2024-07-03 16:53:31.846000,-0.11627906976744186
2611844290,2024-07-03 16:53:31.850000,-0.11865958615638161
2611844290,2024-07-03 16:53:31.854000,-0.12296282732100348
2611844290,2024-07-03 16:53:31.858000,-0.1302874931331258
2611844290,2024-07-03 16:53:31.862000,-0.13962644204358177
2611844290,2024-07-03 16:53:31.866000,-0.14713422450100713
2611844290,2024-07-03 16:53:31.870000,-0.1501556491485076
2611844290,2024-07-03 16:53:31.874000,-0.15043032411646218
2611844290,2024-07-03 16:53:31.878000,-0.15070499908441679
2611844290,2024-07-03 16:53:31.882000,-0.1520783739241897
2611844290,2024-07-03 16:53:31.886000,-0.15418421534517487
2611844290,2024-07-03 16:53:31.890000,-0.15912836476835746
2611844290,2024-07-03 16:53:31.894000,-0.17093938839040468
2611844290,2024-07-03 16:53:31.898000,-0.1879692364035891
2611844290,2024-07-03 16:53:31.902000,-0.20216077641457608
2611844290,2024-07-03 16:53:31.906000,-0.203534151254349
2611844290,2024-07-03 16:53:31.910000,-0.18375755356161874
2611844290,2024-07-03 16:53:31.914000,-0.14145760849661235
2611844290,2024-07-03 16:53:31.918000,-0.08679728987364951
2611844290,2024-07-03 16:53:31.922000,-0.037905145577733015
2611844290,2024-07-03 16:53:31.926000,-0.004852591100531038
2611844290,2024-07-03 16:53:31.930000,0.019868156015381798
2611844290,2024-07-03 16:53:31.934000,0.05136421900750778
2611844290,2024-07-03 16:53:31.938000,0.09650247207471159
2611844290,2024-07-03 16:53:31.942000,0.14090825856070316
2611844290,2024-07-03 16:53:31.946000,0.15317707379600806
2611844290,2024-07-03 16:53:31.950000,0.10657388756637978
2611844290,2024-07-03 16:53:31.954000,0.0020142830983336385
2611844290,2024-07-03 16:53:31.958000,-0.123054385643655
2611844290,2024-07-03 16:53:31.962000,-0.22102179088079107
2611844290,2024-07-03 16:53:31.966000,-0.26387108588170666
2611844290,2024-07-03 16:53:31.970000,-0.23832631386193004
2611844290,2024-07-03 16:53:31.974000,-0.1621497894158579
2611844290,2024-07-03 16:53:31.978000,-0.08972715619849844
2611844290,2024-07-03 16:53:31.982000,-0.05557590184947812
2611844290,2024-07-03 16:53:31.986000,-0.050265519135689433
2611844290,2024-07-03 16:53:31.990000,-0.05264603552462919
2611844290,2024-07-03 16:53:31.994000,-0.049075260941219556
2611844290,2024-07-03 16:53:31.998000,-0.03497527925288409
2611844290,2024-07-03 16:53:32.002000,-0.014557773301593115
2611844290,2024-07-03 16:53:32.006000,0.0030214246475004577
2611844290,2024-07-03 16:53:32.010000,0.01034609045962278
2611844290,2024-07-03 16:53:32.014000,0.008972715619849844
2611844290,2024-07-03 16:53:32.018000,0.007141549166819264
2611844290,2024-07-03 16:53:32.022000,0.008606482329243728
2611844290,2024-07-03 16:53:32.026000,0.009796740523713605
2611844290,2024-07-03 16:53:32.030000,0.010162973814319722
2611844290,2024-07-03 16:53:32.034000,0.015656473173411463
2611844290,2024-07-03 16:53:32.038000,0.027742171763413294
2611844290,2024-07-03 16:53:32.042000,0.04046877861197583
2611844290,2024-07-03 16:53:32.046000,0.0495330525544772
2611844290,2024-07-03 16:53:32.050000,0.055209668558872
2611844290,2024-07-03 16:53:32.054000,0.05969602636879692
2611844290,2024-07-03 16:53:32.058000,0.0637245925654642
2611844290,2024-07-03 16:53:32.062000,0.06610510895440395
2611844290,2024-07-03 16:53:32.066000,0.06637978392235855
2611844290,2024-07-03 16:53:32.070000,0.06555575901849478
2611844290,2024-07-03 16:53:32.074000,0.06509796740523714
2611844290,2024-07-03 16:53:32.078000,0.06738692547152536
2611844290,2024-07-03 16:53:32.082000,0.07462003296099616
2611844290,2024-07-03 16:53:32.086000,0.08606482329243728
2611844290,2024-07-03 16:53:32.090000,0.09879143014099982
2611844290,2024-07-03 16:53:32.094000,0.10877128731001648
2611844290,2024-07-03 16:53:32.098000,0.10886284563266801
2611844290,2024-07-03 16:53:32.102000,0.09421351400842337
2611844290,2024-07-03 16:53:32.106000,0.07462003296099616
2611844290,2024-07-03 16:53:32.110000,0.06885185863394983
2611844290,2024-07-03 16:53:32.114000,0.08633949826039188
2611844290,2024-07-03 16:53:32.118000,0.11820179454312398
2611844290,2024-07-03 16:53:32.122000,0.14685954953305255
2611844290,2024-07-03 16:53:32.126000,0.16288225599707012
2611844290,2024-07-03 16:53:32.130000,0.16800952206555575
2611844290,2024-07-03 16:53:32.134000,0.16617835561252517
2611844290,2024-07-03 16:53:32.138000,0.15839589818714522
2611844290,2024-07-03 16:53:32.142000,0.14612708295184032
2611844290,2024-07-03 16:53:32.146000,0.1344076176524446
2611844290,2024-07-03 16:53:32.150000,0.13101995971433802
2611844290,2024-07-03 16:53:32.154000,0.14219007507782458
2611844290,2024-07-03 16:53:32.158000,0.16636147225782824
2611844290,2024-07-03 16:53:32.162000,0.19034975279252883
2611844290,2024-07-03 16:53:32.166000,0.20151986815601539
2611844290,2024-07-03 16:53:32.170000,0.19996337667093939
2611844290,2024-07-03 16:53:32.174000,0.19071598608313495
2611844290,2024-07-03 16:53:32.178000,0.1737776963926021
2611844290,2024-07-03 16:53:32.182000,0.15006409082585606
2611844290,2024-07-03 16:53:32.186000,0.1274491851309284
2611844290,2024-07-03 16:53:32.190000,0.11426478666910822
2611844290,2024-07-03 16:53:32.194000,0.11087712873100165
2611844290,2024-07-03 16:53:32.198000,0.11170115363486541
2611844290,2024-07-03 16:53:32.202000,0.11051089544039554
2611844290,2024-07-03 16:53:32.206000,0.10236220472440945
2611844290,2024-07-03 16:53:32.210000,0.08633949826039188
2611844290,2024-07-03 16:53:32.214000,0.069401208569859
2611844290,2024-07-03 16:53:32.218000,0.06290056766160045
2611844290,2024-07-03 16:53:32.222000,0.07040835011902583
2611844290,2024-07-03 16:53:32.226000,0.08542391503387659
2611844290,2024-07-03 16:53:32.230000,0.09979857169016663
2611844290,2024-07-03 16:53:32.234000,0.10932063724592565
2611844290,2024-07-03 16:53:32.238000,0.11499725325032045
2611844290,2024-07-03 16:53:32.242000,0.1198498443508515
2611844290,2024-07-03 16:53:32.246000,0.12479399377403406
2611844290,2024-07-03 16:53:32.250000,0.12992125984251968
2611844290,2024-07-03 16:53:32.254000,0.1349569675883538
2611844290,2024-07-03 16:53:32.258000,0.13825306720380884
2611844290,2024-07-03 16:53:32.262000,0.1393517670756272
2611844290,2024-07-03 16:53:32.266000,0.13926020875297565
2611844290,2024-07-03 16:53:32.270000,0.13861930049441495
2611844290,2024-07-03 16:53:32.274000,0.13770371726789965
2611844290,2024-07-03 16:53:32.278000,0.13770371726789965
2611844290,2024-07-03 16:53:32.282000,0.1431972166269914
2611844290,2024-07-03 16:53:32.286000,0.15958615638161508
2611844290,2024-07-03 16:53:32.290000,0.1848562534334371
2611844290,2024-07-03 16:53:32.294000,0.2094854422266984
2611844290,2024-07-03 16:53:32.298000,0.2255997070133675
2611844290,2024-07-03 16:53:32.302000,0.22981138985533786
2611844290,2024-07-03 16:53:32.306000,0.22266984068851858
2611844290,2024-07-03 16:53:32.310000,0.20957700054934994
2611844290,2024-07-03 16:53:32.314000,0.19767441860465115
2611844290,2024-07-03 16:53:32.318000,0.19025819446987732
2611844290,2024-07-03 16:53:32.322000,0.18632118659586155
2611844290,2024-07-03 16:53:32.326000,0.18439846182017947
2611844290,2024-07-03 16:53:32.330000,0.18375755356161874
2611844290,2024-07-03 16:53:32.334000,0.1835744369163157
2611844290,2024-07-03 16:53:32.338000,0.18375755356161874
2611844290,2024-07-03 16:53:32.342000,0.18568027833730086
2611844290,2024-07-03 16:53:32.346000,0.19080754440578648
2611844290,2024-07-03 16:53:32.350000,0.1974913019593481
2611844290,2024-07-03 16:53:32.354000,0.20243545138253066
2611844290,2024-07-03 16:53:32.358000,0.2040835011902582
2611844290,2024-07-03 16:53:32.362000,0.20380882622230362
2611844290,2024-07-03 16:53:32.366000,0.20335103460904597
2611844290,2024-07-03 16:53:32.370000,0.20289324299578831
2611844290,2024-07-03 16:53:32.374000,0.2025270097051822
2611844290,2024-07-03 16:53:32.378000,0.2025270097051822
2611844290,2024-07-03 16:53:32.382000,0.20133675151071231
2611844290,2024-07-03 16:53:32.386000,0.19630104376487822
2611844290,2024-07-03 16:53:32.390000,0.1879692364035891
2611844290,2024-07-03 16:53:32.394000,0.1803698956235122
2611844290,2024-07-03 16:53:32.398000,0.1760666544588903
2611844290,2024-07-03 16:53:32.402000,0.17451016297381433
2611844290,2024-07-03 16:53:32.406000,0.17423548800585972
2611844290,2024-07-03 16:53:32.410000,0.17359457974729903
2611844290,2024-07-03 16:53:32.414000,0.17103094671305621
2611844290,2024-07-03 16:53:32.418000,0.16736861380699505
2611844290,2024-07-03 16:53:32.422000,0.16517121406335836
2611844290,2024-07-03 16:53:32.426000,0.1649880974180553
2611844290,2024-07-03 16:53:32.430000,0.16553744735396447
2611844290,2024-07-03 16:53:32.434000,0.16572056399926754
2611844290,2024-07-03 16:53:32.438000,0.16553744735396447
2611844290,2024-07-03 16:53:32.442000,0.16507965574070682
2611844290,2024-07-03 16:53:32.446000,0.16178355612525178
2611844290,2024-07-03 16:53:32.450000,0.15262772386009887
2611844290,2024-07-03 16:53:32.454000,0.13861930049441495
2611844290,2024-07-03 16:53:32.458000,0.12369529390221572
2611844290,2024-07-03 16:53:32.462000,0.10813037905145578
2611844290,2024-07-03 16:53:32.466000,0.0933894891045596
2611844290,2024-07-03 16:53:32.470000,0.08835378135872551
2611844290,2024-07-03 16:53:32.474000,0.10080571323933346
2611844290,2024-07-03 16:53:32.478000,0.1252517853872917
2611844290,2024-07-03 16:53:32.482000,0.14603552462918878
2611844290,2024-07-03 16:53:32.486000,0.1394433253982787
2611844290,2024-07-03 16:53:32.490000,0.09457974729902949
2611844290,2024-07-03 16:53:32.494000,0.05163889397546237
2611844290,2024-07-03 16:53:32.498000,0.07205639992675335
2611844290,2024-07-03 16:53:32.502000,0.1599523896722212
2611844290,2024-07-03 16:53:32.506000,0.2637795275590551
2611844290,2024-07-03 16:53:32.510000,0.33080021973997437
2611844290,2024-07-03 16:53:32.514000,0.32768723676982237
2611844290,2024-07-03 16:53:32.518000,0.24583409631935543
2611844290,2024-07-03 16:53:32.522000,0.10858817066471342
2611844290,2024-07-03 16:53:32.526000,-0.030580479765610694
2611844290,2024-07-03 16:53:32.530000,-0.11994140267350302
2611844290,2024-07-03 16:53:32.534000,-0.1542757736678264
2611844290,2024-07-03 16:53:32.538000,-0.15757187328328146
2611844290,2024-07-03 16:53:32.542000,-0.13514008423365684
2611844290,2024-07-03 16:53:32.546000,-0.08872001464933163
2611844290,2024-07-03 16:53:32.550000,-0.044405786485991576
2611844290,2024-07-03 16:53:32.554000,-0.023622047244094488
2611844290,2024-07-03 16:53:32.558000,-0.01693828969053287
2611844290,2024-07-03 16:53:32.562000,-0.007782457425379967
2611844290,2024-07-03 16:53:32.566000,0.003845449551364219
2611844290,2024-07-03 16:53:32.570000,0.01117011536348654
2611844290,2024-07-03 16:53:32.574000,0.01400842336568394
2611844290,2024-07-03 16:53:32.578000,0.017579197949093572
2611844290,2024-07-03 16:53:32.582000,0.023805163889397546
2611844290,2024-07-03 16:53:32.586000,0.027925288408716352
2611844290,2024-07-03 16:53:32.590000,0.024995422083867423
2611844290,2024-07-03 16:53:32.594000,0.014557773301593115
2611844290,2024-07-03 16:53:32.598000,-0.0006409082585607032
2611844290,2024-07-03 16:53:32.602000,-0.01602270646401758
2611844290,2024-07-03 16:53:32.606000,-0.02609412195568577
2611844290,2024-07-03 16:53:32.610000,-0.02893242995788317
2611844290,2024-07-03 16:53:32.614000,-0.024812305438564365
2611844290,2024-07-03 16:53:32.618000,-0.014832448269547702
2611844290,2024-07-03 16:53:32.622000,-0.004303241164621864
2611844290,2024-07-03 16:53:32.626000,0.0005493499359091741
2611844290,2024-07-03 16:53:32.630000,-0.003296099615455045
2611844290,2024-07-03 16:53:32.634000,-0.014740889946896173
2611844290,2024-07-03 16:53:32.638000,-0.026460355246291888
2611844290,2024-07-03 16:53:32.642000,-0.03204541292803516
2611844290,2024-07-03 16:53:32.646000,-0.031404504669474455
2611844290,2024-07-03 16:53:32.650000,-0.02819996337667094
2611844290,2024-07-03 16:53:32.654000,-0.026643471891594946
2611844290,2024-07-03 16:53:32.658000,-0.028383080021973997
2611844290,2024-07-03 16:53:32.662000,-0.02984801318439846
2611844290,2024-07-03 16:53:32.666000,-0.02710126350485259
2611844290,2024-07-03 16:53:32.670000,-0.021149972532503204
2611844290,2024-07-03 16:53:32.674000,-0.016663614722578282
2611844290,2024-07-03 16:53:32.678000,-0.015564914850759934
2611844290,2024-07-03 16:53:32.682000,-0.015381798205456876
2611844290,2024-07-03 16:53:32.686000,-0.010803882072880425
2611844290,2024-07-03 16:53:32.690000,0.0010986998718183483
2611844290,2024-07-03 16:53:32.694000,0.01785387291704816
2611844290,2024-07-03 16:53:32.698000,0.03213697125068669
2611844290,2024-07-03 16:53:32.702000,0.039919428676066654
2611844290,2024-07-03 16:53:32.706000,0.04220838674235488
2611844290,2024-07-03 16:53:32.710000,0.04202527009705182
2611844290,2024-07-03 16:53:32.714000,0.041659036806445705
2611844290,2024-07-03 16:53:32.718000,0.04120124519318806
2611844290,2024-07-03 16:53:32.722000,0.039736312030763596
2611844290,2024-07-03 16:53:32.726000,0.036073979124702435
2611844290,2024-07-03 16:53:32.730000,0.030214246475004577
2611844290,2024-07-03 16:53:32.734000,0.024995422083867423
2611844290,2024-07-03 16:53:32.738000,0.023988280534700604
2611844290,2024-07-03 16:53:32.742000,0.02710126350485259
2611844290,2024-07-03 16:53:32.746000,0.029298663248489287
2611844290,2024-07-03 16:53:32.750000,0.024812305438564365
2611844290,2024-07-03 16:53:32.754000,0.011444790331441128
2611844290,2024-07-03 16:53:32.758000,-0.008789598974546786
2611844290,2024-07-03 16:53:32.762000,-0.03103827137886834
2611844290,2024-07-03 16:53:32.766000,-0.049075260941219556
2611844290,2024-07-03 16:53:32.770000,-0.058688884819630104
2611844290,2024-07-03 16:53:32.774000,-0.06116095953122139
2611844290,2024-07-03 16:53:32.778000,-0.0608862845632668
2611844290,2024-07-03 16:53:32.782000,-0.060336934627357626
2611844290,2024-07-03 16:53:32.786000,-0.060336934627357626
2611844290,2024-07-03 16:53:32.790000,-0.06390770921076726
2611844290,2024-07-03 16:53:32.794000,-0.0766343160593298
2611844290,2024-07-03 16:53:32.798000,-0.10098882988463652
2611844290,2024-07-03 16:53:32.802000,-0.12973814319721663
2611844290,2024-07-03 16:53:32.806000,-0.1507965574070683
2611844290,2024-07-03 16:53:32.810000,-0.15967771470426662
2611844290,2024-07-03 16:53:32.814000,-0.16132576451199415
2611844290,2024-07-03 16:53:32.818000,-0.16077641457608496
2611844290,2024-07-03 16:53:32.822000,-0.1599523896722212
2611844290,2024-07-03 16:53:32.826000,-0.15912836476835746
2611844290,2024-07-03 16:53:32.830000,-0.15839589818714522
2611844290,2024-07-03 16:53:32.834000,-0.15793810657388757
2611844290,2024-07-03 16:53:32.838000,-0.15784654825123604
2611844290,2024-07-03 16:53:32.842000,-0.157663431605933
2611844290,2024-07-03 16:53:32.846000,-0.1580296648965391
2611844290,2024-07-03 16:53:32.850000,-0.1615088811572972
2611844290,2024-07-03 16:53:32.854000,-0.16755173045229813
2611844290,2024-07-03 16:53:32.858000,-0.1728621131660868
2611844290,2024-07-03 16:53:32.862000,-0.17624977110419338
2611844290,2024-07-03 16:53:32.866000,-0.17872184581578465
2611844290,2024-07-03 16:53:32.870000,-0.18101080388207288
2611844290,2024-07-03 16:53:32.874000,-0.18146859549533054
2611844290,2024-07-03 16:53:32.878000,-0.17863028749313312
2611844290,2024-07-03 16:53:32.882000,-0.17405237136055668
2611844290,2024-07-03 16:53:32.886000,-0.17075627174510163
2611844290,2024-07-03 16:53:32.890000,-0.17039003845449552
2611844290,2024-07-03 16:53:32.894000,-0.17203808826222303
2611844290,2024-07-03 16:53:32.898000,-0.17240432155282914
2611844290,2024-07-03 16:53:32.902000,-0.1700238051638894
2611844290,2024-07-03 16:53:32.906000,-0.16636147225782824
2611844290,2024-07-03 16:53:32.910000,-0.16480498077275224
2611844290,2024-07-03 16:53:32.914000,-0.1684673136788134
2611844290,2024-07-03 16:53:32.918000,-0.17258743819813221
2611844290,2024-07-03 16:53:32.922000,-0.16993224684123787
2611844290,2024-07-03 16:53:32.926000,-0.16324848928767624
2611844290,2024-07-03 16:53:32.930000,-0.15885368980040285
2611844290,2024-07-03 16:53:32.934000,-0.1577549899285845
2611844290,2024-07-03 16:53:32.938000,-0.15784654825123604
2611844290,2024-07-03 16:53:32.942000,-0.1583043398644937
2611844290,2024-07-03 16:53:32.946000,-0.15921992309100896
2611844290,2024-07-03 16:53:32.950000,-0.1602270646401758
2611844290,2024-07-03 16:53:32.954000,-0.1598608313495697
2611844290,2024-07-03 16:53:32.958000,-0.1583043398644937
2611844290,2024-07-03 16:53:32.962000,-0.15903680644570592
2611844290,2024-07-03 16:53:32.966000,-0.16453030580479766
2611844290,2024-07-03 16:53:32.970000,-0.1738692547152536
2611844290,2024-07-03 16:53:32.974000,-0.1830250869804065
2611844290,2024-07-03 16:53:32.978000,-0.1879692364035891
2611844290,2024-07-03 16:53:32.982000,-0.18778611975828602
2611844290,2024-07-03 16:53:32.986000,-0.1870536531770738
2611844290,2024-07-03 16:53:32.990000,-0.19355429408533237
2611844290,2024-07-03 16:53:32.994000,-0.21250686687419887
2611844290,2024-07-03 16:53:32.998000,-0.23741073063541476
2611844290,2024-07-03 16:53:33.002000,-0.2551730452298114
2611844290,2024-07-03 16:53:33.006000,-0.26084966123420616
2611844290,2024-07-03 16:53:33.010000,-0.25984251968503935
2611844290,2024-07-03 16:53:33.014000,-0.25856070316791796
2611844290,2024-07-03 16:53:33.018000,-0.25874381981322103
2611844290,2024-07-03 16:53:33.022000,-0.2600256363303424
2611844290,2024-07-03 16:53:33.026000,-0.26396264420435817
2611844290,2024-07-03 16:53:33.030000,-0.2712873100164805
2611844290,2024-07-03 16:53:33.034000,-0.2765976927302692
2611844290,2024-07-03 16:53:33.038000,-0.27897820911920895
2611844290,2024-07-03 16:53:33.042000,-0.28914118293352864
2611844290,2024-07-03 16:53:33.046000,-0.30937557223951656
2611844290,2024-07-03 16:53:33.050000,-0.3166086797289874
2611844290,2024-07-03 16:53:33.054000,-0.2849295000915583
2611844290,2024-07-03 16:53:33.058000,-0.2176341329426845
2611844290,2024-07-03 16:53:33.062000,-0.14072514191540011
2611844290,2024-07-03 16:53:33.066000,-0.08157846548251237
2611844290,2024-07-03 16:53:33.070000,-0.0659219923091009
2611844290,2024-07-03 16:53:33.074000,-0.10162973814319722
2611844290,2024-07-03 16:53:33.078000,-0.16398095586888847
2611844290,2024-07-03 16:53:33.082000,-0.22733931514374656
2611844290,2024-07-03 16:53:33.086000,-0.2852041750595129
2611844290,2024-07-03 16:53:33.090000,-0.3313495696758835
2611844290,2024-07-03 16:53:33.094000,-0.36650796557407067
2611844290,2024-07-03 16:53:33.098000,-0.39040468778611975
2611844290,2024-07-03 16:53:33.102000,-0.38152353048892146
2611844290,2024-07-03 16:53:33.106000,-0.339223585423915
2611844290,2024-07-03 16:53:33.110000,-0.2983885735213331
2611844290,2024-07-03 16:53:33.114000,-0.27705548434352684
2611844290,2024-07-03 16:53:33.118000,-0.26506134407617654
2611844290,2024-07-03 16:53:33.122000,-0.2529756454861747
2611844290,2024-07-03 16:53:33.126000,-0.23887566379783923
2611844290,2024-07-03 16:53:33.130000,-0.22157114081670023
2611844290,2024-07-03 16:53:33.134000,-0.20115363486540927
2611844290,2024-07-03 16:53:33.138000,-0.179820545687603
2611844290,2024-07-03 16:53:33.142000,-0.16095953122138804
2611844290,2024-07-03 16:53:33.146000,-0.14786669108221936
2611844290,2024-07-03 16:53:33.150000,-0.14127449185130928
2611844290,2024-07-03 16:53:33.154000,-0.13861930049441495
2611844290,2024-07-03 16:53:33.158000,-0.13413294268449003
2611844290,2024-07-03 16:53:33.162000,-0.12149789415857902
2611844290,2024-07-03 16:53:33.166000,-0.09979857169016663
2611844290,2024-07-03 16:53:33.170000,-0.07471159128364768
2611844290,2024-07-03 16:53:33.174000,-0.051181102362204724
2611844290,2024-07-03 16:53:33.178000,-0.030214246475004577
2611844290,2024-07-03 16:53:33.182000,-0.012726606848562534
2611844290,2024-07-03 16:53:33.186000,-0.0007324665812122322
2611844290,2024-07-03 16:53:33.190000,0.004761032777879509
2611844290,2024-07-03 16:53:33.194000,0.0059512909723493865
2611844290,2024-07-03 16:53:33.198000,0.007874015748031496
2611844290,2024-07-03 16:53:33.202000,0.014283098333638528
2611844290,2024-07-03 16:53:33.206000,0.02234023072697308
2611844290,2024-07-03 16:53:33.210000,0.02710126350485259
2611844290,2024-07-03 16:53:33.214000,0.029390221571140816
2611844290,2024-07-03 16:53:33.218000,0.0347006042849295
2611844290,2024-07-03 16:53:33.222000,0.044497344808643105
2611844290,2024-07-03 16:53:33.226000,0.05612525178538729
2611844290,2024-07-03 16:53:33.230000,0.06821095037538913
2611844290,2024-07-03 16:53:33.234000,0.0801135323200879
2611844290,2024-07-03 16:53:33.238000,0.09384728071781726
2611844290,2024-07-03 16:53:33.242000,0.11362387841054752
2611844290,2024-07-03 16:53:33.246000,0.13687969236403588
2611844290,2024-07-03 16:53:33.250000,0.15317707379600806
2611844290,2024-07-03 16:53:33.254000,0.15894524812305438
2611844290,2024-07-03 16:53:33.258000,0.16141732283464566
2611844290,2024-07-03 16:53:33.262000,0.16837575535616187
2611844290,2024-07-03 16:53:33.266000,0.1823841787218458
2611844290,2024-07-03 16:53:33.270000,0.20069584325215162
2611844290,2024-07-03 16:53:33.274000,0.21681010803882073
2611844290,2024-07-03 16:53:33.278000,0.22541659036806447
2611844290,2024-07-03 16:53:33.282000,0.22706464017579198
2611844290,2024-07-03 16:53:33.286000,0.22495879875480682
2611844290,2024-07-03 16:53:33.290000,0.22184581578465482
2611844290,2024-07-03 16:53:33.294000,0.21937374107306354
2611844290,2024-07-03 16:53:33.298000,0.21745101629738142
2611844290,2024-07-03 16:53:33.302000,0.21415491668192638
2611844290,2024-07-03 16:53:33.306000,0.2078373924189709
2611844290,2024-07-03 16:53:33.310000,0.19840688518586339
2611844290,2024-07-03 16:53:33.314000,0.18622962827321005
2611844290,2024-07-03 16:53:33.318000,0.17231276323017763
2611844290,2024-07-03 16:53:33.322000,0.16004394799487273
2611844290,2024-07-03 16:53:33.326000,0.1511627906976744
2611844290,2024-07-03 16:53:33.330000,0.14228163340047612
2611844290,2024-07-03 16:53:33.334000,0.12763230177623147
2611844290,2024-07-03 16:53:33.338000,0.1091375206006226
2611844290,2024-07-03 16:53:33.342000,0.09467130562168101
2611844290,2024-07-03 16:53:33.346000,0.08688884819630105
2611844290,2024-07-03 16:53:33.350000,0.08185314045046695
2611844290,2024-07-03 16:53:33.354000,0.07608496612342062
2611844290,2024-07-03 16:53:33.358000,0.06958432521516206
2611844290,2024-07-03 16:53:33.362000,0.06637978392235855
2611844290,2024-07-03 16:53:33.366000,0.06885185863394983
2611844290,2024-07-03 16:53:33.370000,0.07352133308917781
2611844290,2024-07-03 16:53:33.374000,0.07617652444607215
2611844290,2024-07-03 16:53:33.378000,0.07709210767258744
2611844290,2024-07-03 16:53:33.382000,0.07837392418970884
2611844290,2024-07-03 16:53:33.386000,0.08121223219190625
2611844290,2024-07-03 16:53:33.390000,0.08551547335652811
2611844290,2024-07-03 16:53:33.394000,0.0911920893609229
2611844290,2024-07-03 16:53:33.398000,0.0955868888481963
2611844290,2024-07-03 16:53:33.402000,0.09503753891228713
2611844290,2024-07-03 16:53:33.406000,0.0921076725874382
2611844290,2024-07-03 16:53:33.410000,0.09384728071781726
2611844290,2024-07-03 16:53:33.414000,0.1012635048525911
2611844290,2024-07-03 16:53:33.418000,0.1082219373741073
2611844290,2024-07-03 16:53:33.422000,0.11087712873100165
2611844290,2024-07-03 16:53:33.426000,0.11023622047244094
2611844290,2024-07-03 16:53:33.430000,0.1091375206006226
2611844290,2024-07-03 16:53:33.434000,0.11014466214978942
2611844290,2024-07-03 16:53:33.438000,0.11527192821827505
2611844290,2024-07-03 16:53:33.442000,0.123054385643655
2611844290,2024-07-03 16:53:33.446000,0.12671671854971617
2611844290,2024-07-03 16:53:33.450000,0.12296282732100348
2611844290,2024-07-03 16:53:33.454000,0.1198498443508515
2611844290,2024-07-03 16:53:33.458000,0.12662516022706463
2611844290,2024-07-03 16:53:33.462000,0.14054202527009704
2611844290,2024-07-03 16:53:33.466000,0.15152902398828053
2611844290,2024-07-03 16:53:33.470000,0.15592382347555392
2611844290,2024-07-03 16:53:33.474000,0.15921992309100896
2611844290,2024-07-03 16:53:33.478000,0.16819263871085882
2611844290,2024-07-03 16:53:33.482000,0.1826588536898004
2611844290,2024-07-03 16:53:33.486000,0.1981322102179088
2611844290,2024-07-03 16:53:33.490000,0.21076725874381982
2611844290,2024-07-03 16:53:33.494000,0.2160776414576085
2611844290,2024-07-03 16:53:33.498000,0.21241530855154733
2611844290,2024-07-03 16:53:33.502000,0.20609778428859182
2611844290,2024-07-03 16:53:33.506000,0.2031679179637429
2611844290,2024-07-03 16:53:33.510000,0.2030763596410914
2611844290,2024-07-03 16:53:33.514000,0.2031679179637429
2611844290,2024-07-03 16:53:33.518000,0.20298480131843985
2611844290,2024-07-03 16:53:33.522000,0.20325947628639443
2611844290,2024-07-03 16:53:33.526000,0.2057315509979857
2611844290,2024-07-03 16:53:33.530000,0.21177440029298664
2611844290,2024-07-03 16:53:33.534000,0.21937374107306354
2611844290,2024-07-03 16:53:33.538000,0.22505035707745835
2611844290,2024-07-03 16:53:33.542000,0.2277971067570042
2611844290,2024-07-03 16:53:33.546000,0.22971983153268632
2611844290,2024-07-03 16:53:33.550000,0.23100164804980772
2611844290,2024-07-03 16:53:33.554000,0.22944515656473174
2611844290,2024-07-03 16:53:33.558000,0.22349386559238235
2611844290,2024-07-03 16:53:33.562000,0.2132393334554111
2611844290,2024-07-03 16:53:33.566000,0.19694195202343892
2611844290,2024-07-03 16:53:33.570000,0.17185497161691998
2611844290,2024-07-03 16:53:33.574000,0.1420069584325215
2611844290,2024-07-03 16:53:33.578000,0.11646218641274492
2611844290,2024-07-03 16:53:33.582000,0.10016480498077275
2611844290,2024-07-03 16:53:33.586000,0.09256546420069585
2611844290,2024-07-03 16:53:33.590000,0.0911920893609229
2611844290,2024-07-03 16:53:33.594000,0.09091741439296833
2611844290,2024-07-03 16:53:33.598000,0.08597326496978576
2611844290,2024-07-03 16:53:33.602000,0.07242263321735946
2611844290,2024-07-03 16:53:33.606000,0.05163889397546237
2611844290,2024-07-03 16:53:33.610000,0.030580479765610694
2611844290,2024-07-03 16:53:33.614000,0.018220106207654276
2611844290,2024-07-03 16:53:33.618000,0.024629188793261307
2611844290,2024-07-03 16:53:33.622000,0.06363303424281268
2611844290,2024-07-03 16:53:33.626000,0.13459073429774768
2611844290,2024-07-03 16:53:33.630000,0.20280168467313678
2611844290,2024-07-03 16:53:33.634000,0.22724775682109505
2611844290,2024-07-03 16:53:33.638000,0.20499908441677347
2611844290,2024-07-03 16:53:33.642000,0.15876213147775134
2611844290,2024-07-03 16:53:33.646000,0.10492583775865226
2611844290,2024-07-03 16:53:33.650000,0.05218824391137154
2611844290,2024-07-03 16:53:33.654000,-0.0019227247756821095
2611844290,2024-07-03 16:53:33.658000,-0.07269730818531404
2611844290,2024-07-03 16:53:33.662000,-0.16004394799487273
2611844290,2024-07-03 16:53:33.666000,-0.23420618934261125
2611844290,2024-07-03 16:53:33.670000,-0.2600256363303424
2611844290,2024-07-03 16:53:33.674000,-0.2267899652078374
2611844290,2024-07-03 16:53:33.678000,-0.1554660318622963
2611844290,2024-07-03 16:53:33.682000,-0.0842336568394067
2611844290,2024-07-03 16:53:33.686000,-0.042666178355612525
2611844290,2024-07-03 16:53:33.690000,-0.0318622962827321
2611844290,2024-07-03 16:53:33.694000,-0.035066837575535616
2611844290,2024-07-03 16:53:33.698000,-0.040651895257278886
2611844290,2024-07-03 16:53:33.702000,-0.04852591100531038
2611844290,2024-07-03 16:53:33.706000,-0.06198498443508515
2611844290,2024-07-03 16:53:33.710000,-0.0785570408350119
2611844290,2024-07-03 16:53:33.714000,-0.09000183116645304
2611844290,2024-07-03 16:53:33.718000,-0.09027650613440762
2611844290,2024-07-03 16:53:33.722000,-0.07892327412561802
2611844290,2024-07-03 16:53:33.726000,-0.06161875114447903
2611844290,2024-07-03 16:53:33.730000,-0.046236952939022156
2611844290,2024-07-03 16:53:33.734000,-0.037813587255081486
2611844290,2024-07-03 16:53:33.738000,-0.03671488738326314
2611844290,2024-07-03 16:53:33.742000,-0.03955319538546054
2611844290,2024-07-03 16:53:33.746000,-0.042574620032960996
2611844290,2024-07-03 16:53:33.750000,-0.04376487822743087
2611844290,2024-07-03 16:53:33.754000,-0.04394799487273393
2611844290,2024-07-03 16:53:33.758000,-0.04394799487273393
2611844290,2024-07-03 16:53:33.762000,-0.043490203259476286
2611844290,2024-07-03 16:53:33.766000,-0.04046877861197583
2611844290,2024-07-03 16:53:33.770000,-0.032320087895989745
2611844290,2024-07-03 16:53:33.774000,-0.020051272660684856
2611844290,2024-07-03 16:53:33.778000,-0.008057132393334554
2611844290,2024-07-03 16:53:33.782000,-0.0007324665812122322
2611844290,2024-07-03 16:53:33.786000,-0.0018311664530305805
2611844290,2024-07-03 16:53:33.790000,-0.012818165171214063
2611844290,2024-07-03 16:53:33.794000,-0.027833730086064823
2611844290,2024-07-03 16:53:33.798000,-0.035158395898187145
2611844290,2024-07-03 16:53:33.802000,-0.029481779893792345
2611844290,2024-07-03 16:53:33.806000,-0.01684673136788134
2611844290,2024-07-03 16:53:33.810000,-0.007416224134773851
2611844290,2024-07-03 16:53:33.814000,-0.00558505768174327
2611844290,2024-07-03 16:53:33.818000,-0.007690899102728438
2611844290,2024-07-03 16:53:33.822000,-0.007324665812122322
2611844290,2024-07-03 16:53:33.826000,-0.003296099615455045
2611844290,2024-07-03 16:53:33.830000,-0.00027467496795458707
2611844290,2024-07-03 16:53:33.834000,0.0013733748397729353
2611844290,2024-07-03 16:53:33.838000,0.008789598974546786
2611844290,2024-07-03 16:53:33.842000,0.027467496795458707
2611844290,2024-07-03 16:53:33.846000,0.05246291887932613
2611844290,2024-07-03 16:53:33.850000,0.07132393334554112
2611844290,2024-07-03 16:53:33.854000,0.07919794909357261
2611844290,2024-07-03 16:53:33.858000,0.07919794909357261
2611844290,2024-07-03 16:53:33.862000,0.07297198315326864
2611844290,2024-07-03 16:53:33.866000,0.05987914301409998
2611844290,2024-07-03 16:53:33.870000,0.04394799487273393
2611844290,2024-07-03 16:53:33.874000,0.03195385460538363
2611844290,2024-07-03 16:53:33.878000,0.02527009705182201
2611844290,2024-07-03 16:53:33.882000,0.019959714338033327
2611844290,2024-07-03 16:53:33.886000,0.014374656656290057
2611844290,2024-07-03 16:53:33.890000,0.010712323750228896
2611844290,2024-07-03 16:53:33.894000,0.010895440395531954
2611844290,2024-07-03 16:53:33.898000,0.011536348654092657
2611844290,2024-07-03 16:53:33.902000,0.0030214246475004577
2611844290,2024-07-03 16:53:33.906000,-0.022889580662882256
2611844290,2024-07-03 16:53:33.910000,-0.060428492950009155
2611844290,2024-07-03 16:53:33.914000,-0.09375572239516572
2611844290,2024-07-03 16:53:33.918000,-0.11591283647683574
2611844290,2024-07-03 16:53:33.922000,-0.1300128181651712
2611844290,2024-07-03 16:53:33.926000,-0.13770371726789965
2611844290,2024-07-03 16:53:33.930000,-0.13852774217176342
2611844290,2024-07-03 16:53:33.934000,-0.13193554294085333
2611844290,2024-07-03 16:53:33.938000,-0.11737776963926021
2611844290,2024-07-03 16:53:33.942000,-0.10007324665812123
2611844290,2024-07-03 16:53:33.946000,-0.08881157297198315
2611844290,2024-07-03 16:53:33.950000,-0.08469144845266435
2611844290,2024-07-03 16:53:33.954000,-0.08167002380516389
2611844290,2024-07-03 16:53:33.958000,-0.07700054934993592
2611844290,2024-07-03 16:53:33.962000,-0.07260574986266252
2611844290,2024-07-03 16:53:33.966000,-0.07004211682841971
2611844290,2024-07-03 16:53:33.970000,-0.06903497527925288
2611844290,2024-07-03 16:53:33.974000,-0.07150704999084417
2611844290,2024-07-03 16:53:33.978000,-0.08148690715986083
2611844290,2024-07-03 16:53:33.982000,-0.0990661051089544
2611844290,2024-07-03 16:53:33.986000,-0.11682841970335103
2611844290,2024-07-03 16:53:33.990000,-0.12671671854971617
2611844290,2024-07-03 16:53:33.994000,-0.12689983519501924
2611844290,2024-07-03 16:53:33.998000,-0.1198498443508515
2611844290,2024-07-03 16:53:34.002000,-0.10986998718183483
2611844290,2024-07-03 16:53:34.006000,-0.10117194652993958
2611844290,2024-07-03 16:53:34.010000,-0.09512909723493866
2611844290,2024-07-03 16:53:34.014000,-0.0914667643288775
2611844290,2024-07-03 16:53:34.018000,-0.09164988097418056
2611844290,2024-07-03 16:53:34.022000,-0.09696026368796924
2611844290,2024-07-03 16:53:34.026000,-0.1041018128547885
2611844290,2024-07-03 16:53:34.030000,-0.10794726240615272
2611844290,2024-07-03 16:53:34.034000,-0.10721479582494049
2611844290,2024-07-03 16:53:34.038000,-0.10437648782274309
2611844290,2024-07-03 16:53:34.042000,-0.10199597143380333
2611844290,2024-07-03 16:53:34.046000,-0.1006225965940304
2611844290,2024-07-03 16:53:34.050000,-0.09979857169016663
2611844290,2024-07-03 16:53:34.054000,-0.09915766343160594
2611844290,2024-07-03 16:53:34.058000,-0.09879143014099982
2611844290,2024-07-03 16:53:34.062000,-0.099340780076909
2611844290,2024-07-03 16:53:34.066000,-0.10108038820728804
2611844290,2024-07-03 16:53:34.070000,-0.10355246291887933
2611844290,2024-07-03 16:53:34.074000,-0.10309467130562168
2611844290,2024-07-03 16:53:34.078000,-0.09503753891228713
2611844290,2024-07-03 16:53:34.082000,-0.07974729902948179
2611844290,2024-07-03 16:53:34.086000,-0.06427394250137337
2611844290,2024-07-03 16:53:34.090000,-0.0545687603003113
2611844290,2024-07-03 16:53:34.094000,-0.050997985716901666
2611844290,2024-07-03 16:53:34.098000,-0.050082402490386375
2611844290,2024-07-03 16:53:34.102000,-0.04568760300311298
2611844290,2024-07-03 16:53:34.106000,-0.033235671122505035
2611844290,2024-07-03 16:53:34.110000,-0.016114264786669108
2611844290,2024-07-03 16:53:34.114000,-0.0026551913568943417
2611844290,2024-07-03 16:53:34.118000,0.005035707745834096
2611844290,2024-07-03 16:53:34.122000,0.011078557040835012
2611844290,2024-07-03 16:53:34.126000,0.01501556491485076
2611844290,2024-07-03 16:53:34.130000,0.013275956784471708
2611844290,2024-07-03 16:53:34.134000,0.007416224134773851
2611844290,2024-07-03 16:53:34.138000,0.0025636330342428126
2611844290,2024-07-03 16:53:34.142000,0.0013733748397729353
2611844290,2024-07-03 16:53:34.146000,0.0017396081303790514
2611844290,2024-07-03 16:53:34.150000,-0.0019227247756821095
2611844290,2024-07-03 16:53:34.154000,-0.015381798205456876
2611844290,2024-07-03 16:53:34.158000,-0.03543307086614173
2611844290,2024-07-03 16:53:34.162000,-0.05163889397546237
2611844290,2024-07-03 16:53:34.166000,-0.057498626625160226
2611844290,2024-07-03 16:53:34.170000,-0.05163889397546237
2611844290,2024-07-03 16:53:34.174000,-0.03460904596227797
2611844290,2024-07-03 16:53:34.178000,-0.012818165171214063
2611844290,2024-07-03 16:53:34.182000,0.003204541292803516
2611844290,2024-07-03 16:53:34.186000,0.008606482329243728
2611844290,2024-07-03 16:53:34.190000,0.003479216260758103
2611844290,2024-07-03 16:53:34.194000,-0.010712323750228896
2611844290,2024-07-03 16:53:34.198000,-0.02069218091924556
2611844290,2024-07-03 16:53:34.202000,-0.0020142830983336385
2611844290,2024-07-03 16:53:34.206000,0.05090642739425014
2611844290,2024-07-03 16:53:34.210000,0.11920893609229079
2611844290,2024-07-03 16:53:34.214000,0.18650430324116463
2611844290,2024-07-03 16:53:34.218000,0.23832631386193004
2611844290,2024-07-03 16:53:34.222000,0.25865226149056947
2611844290,2024-07-03 16:53:34.226000,0.24757370444973448
2611844290,2024-07-03 16:53:34.230000,0.20829518403222852
2611844290,2024-07-03 16:53:34.234000,0.13669657571873284
2611844290,2024-07-03 16:53:34.238000,0.04504669474455228
2611844290,2024-07-03 16:53:34.242000,-0.04120124519318806
2611844290,2024-07-03 16:53:34.246000,-0.11014466214978942
2611844290,2024-07-03 16:53:34.250000,-0.15152902398828053
2611844290,2024-07-03 16:53:34.254000,-0.14933162424464383
2611844290,2024-07-03 16:53:34.258000,-0.10968687053653177
2611844290,2024-07-03 16:53:34.262000,-0.059512909723493865
2611844290,2024-07-03 16:53:34.266000,-0.01409998168833547
2611844290,2024-07-03 16:53:34.270000,0.021790880791063907
2611844290,2024-07-03 16:53:34.274000,0.04431422816334005
2611844290,2024-07-03 16:53:34.278000,0.05594213514008423
2611844290,2024-07-03 16:53:34.282000,0.06097784288591833
2611844290,2024-07-03 16:53:34.286000,0.06097784288591833
2611844290,2024-07-03 16:53:34.290000,0.05832265152902399
2611844290,2024-07-03 16:53:34.294000,0.056583043398644936
2611844290,2024-07-03 16:53:34.298000,0.05786485991576634
2611844290,2024-07-03 16:53:34.302000,0.0630836843069035
2611844290,2024-07-03 16:53:34.306000,0.07059146676432888
2611844290,2024-07-03 16:53:34.310000,0.0772752243178905
2611844290,2024-07-03 16:53:34.314000,0.08157846548251237
2611844290,2024-07-03 16:53:34.318000,0.08395898187145212
2611844290,2024-07-03 16:53:34.322000,0.08542391503387659
2611844290,2024-07-03 16:53:34.326000,0.0864310565830434
2611844290,2024-07-03 16:53:34.330000,0.08633949826039188
2611844290,2024-07-03 16:53:34.334000,0.08478300677531588
2611844290,2024-07-03 16:53:34.338000,0.08340963193554295
2611844290,2024-07-03 16:53:34.342000,0.08276872367698224
2611844290,2024-07-03 16:53:34.346000,0.07974729902948179
2611844290,2024-07-03 16:53:34.350000,0.07150704999084417
2611844290,2024-07-03 16:53:34.354000,0.05997070133675151
2611844290,2024-07-03 16:53:34.358000,0.051089544039553195
2611844290,2024-07-03 16:53:34.362000,0.04806811939205274
2611844290,2024-07-03 16:53:34.366000,0.05044863578099249
2611844290,2024-07-03 16:53:34.370000,0.057681743270463284
2611844290,2024-07-03 16:53:34.374000,0.06784471708478301
2611844290,2024-07-03 16:53:34.378000,0.07736678264054203
2611844290,2024-07-03 16:53:34.382000,0.0842336568394067
2611844290,2024-07-03 16:53:34.386000,0.08716352316425563
2611844290,2024-07-03 16:53:34.390000,0.0864310565830434
2611844290,2024-07-03 16:53:34.394000,0.08441677348470976
2611844290,2024-07-03 16:53:34.398000,0.08414209851675518
2611844290,2024-07-03 16:53:34.402000,0.08670573155099799
2611844290,2024-07-03 16:53:34.406000,0.09155832265152902
2611844290,2024-07-03 16:53:34.410000,0.0984251968503937
2611844290,2024-07-03 16:53:34.414000,0.10895440395531954
2611844290,2024-07-03 16:53:34.418000,0.12158945248123054
2611844290,2024-07-03 16:53:34.422000,0.13101995971433802
2611844290,2024-07-03 16:53:34.426000,0.13523164255630837
2611844290,2024-07-03 16:53:34.430000,0.13623878410547519
2611844290,2024-07-03 16:53:34.434000,0.13614722578282365
2611844290,2024-07-03 16:53:34.438000,0.13614722578282365
2611844290,2024-07-03 16:53:34.442000,0.13678813404138437
2611844290,2024-07-03 16:53:34.446000,0.1375206006225966
2611844290,2024-07-03 16:53:34.450000,0.13514008423365684
2611844290,2024-07-03 16:53:34.454000,0.12607581029115547
2611844290,2024-07-03 16:53:34.458000,0.11106024537630471
2611844290,2024-07-03 16:53:34.462000,0.09549533052554478
2611844290,2024-07-03 16:53:34.466000,0.08340963193554295
2611844290,2024-07-03 16:53:34.470000,0.0744369163156931
2611844290,2024-07-03 16:53:34.474000,0.0652810840505402
2611844290,2024-07-03 16:53:34.478000,0.05255447720197766
2611844290,2024-07-03 16:53:34.482000,0.03479216260758103
2611844290,2024-07-03 16:53:34.486000,0.01309284013916865
2611844290,2024-07-03 16:53:34.490000,-0.007324665812122322
2611844290,2024-07-03 16:53:34.494000,-0.019868156015381798
2611844290,2024-07-03 16:53:34.498000,-0.024812305438564365
2611844290,2024-07-03 16:53:34.502000,-0.03085515473356528
2611844290,2024-07-03 16:53:34.506000,-0.04614539461637063
2611844290,2024-07-03 16:53:34.510000,-0.06784471708478301
2611844290,2024-07-03 16:53:34.514000,-0.08560703167917964
2611844290,2024-07-03 16:53:34.518000,-0.09357260574986266
2611844290,2024-07-03 16:53:34.522000,-0.09467130562168101
2611844290,2024-07-03 16:53:34.526000,-0.0933894891045596
2611844290,2024-07-03 16:53:34.530000,-0.09100897271561985
2611844290,2024-07-03 16:53:34.534000,-0.08725508148690717
2611844290,2024-07-03 16:53:34.538000,-0.08249404870902766
2611844290,2024-07-03 16:53:34.542000,-0.07837392418970884
2611844290,2024-07-03 16:53:34.546000,-0.07471159128364768
2611844290,2024-07-03 16:53:34.550000,-0.06995055850576817
2611844290,2024-07-03 16:53:34.554000,-0.0652810840505402
2611844290,2024-07-03 16:53:34.558000,-0.06390770921076726
2611844290,2024-07-03 16:53:34.562000,-0.06930965024720748
2611844290,2024-07-03 16:53:34.566000,-0.08313495696758835
2611844290,2024-07-03 16:53:34.570000,-0.10053103827137887
2611844290,2024-07-03 16:53:34.574000,-0.11316608679728987
2611844290,2024-07-03 16:53:34.578000,-0.11811023622047244
2611844290,2024-07-03 16:53:34.582000,-0.11801867789782092
2611844290,2024-07-03 16:53:34.586000,-0.1141732283464567
2611844290,2024-07-03 16:53:34.590000,-0.1050173960813038
2611844290,2024-07-03 16:53:34.594000,-0.0899102728438015
2611844290,2024-07-03 16:53:34.598000,-0.07342977476652628
2611844290,2024-07-03 16:53:34.602000,-0.0615271928218275
2611844290,2024-07-03 16:53:34.606000,-0.05557590184947812
2611844290,2024-07-03 16:53:34.610000,-0.05255447720197766
2611844290,2024-07-03 16:53:34.614000,-0.04944149423182567
2611844290,2024-07-03 16:53:34.618000,-0.04587071964841604
2611844290,2024-07-03 16:53:34.622000,-0.04056033693462736
2611844290,2024-07-03 16:53:34.626000,-0.03167917963742904
2611844290,2024-07-03 16:53:34.630000,-0.02060062259659403
2611844290,2024-07-03 16:53:34.634000,-0.01025453213697125
2611844290,2024-07-03 16:53:34.638000,9.155832265152902e-05
2611844290,2024-07-03 16:53:34.642000,0.011902581944698773
2611844290,2024-07-03 16:53:34.646000,0.02160776414576085
2611844290,2024-07-03 16:53:34.650000,0.025911005310382713
2611844290,2024-07-03 16:53:34.654000,0.02710126350485259
2611844290,2024-07-03 16:53:34.658000,0.03177073796008057
2611844290,2024-07-03 16:53:34.662000,0.04239150338765794
2611844290,2024-07-03 16:53:34.666000,0.05273759384728072
2611844290,2024-07-03 16:53:34.670000,0.05539278520417506
2611844290,2024-07-03 16:53:34.674000,0.05273759384728072
2611844290,2024-07-03 16:53:34.678000,0.05090642739425014
2611844290,2024-07-03 16:53:34.682000,0.05127266068485625
2611844290,2024-07-03 16:53:34.686000,0.052005127266068485
2611844290,2024-07-03 16:53:34.690000,0.05255447720197766
2611844290,2024-07-03 16:53:34.694000,0.05319538546053836
2611844290,2024-07-03 16:53:34.698000,0.053744735396447536
2611844290,2024-07-03 16:53:34.702000,0.05502655191356894
2611844290,2024-07-03 16:53:34.706000,0.05795641823841787
2611844290,2024-07-03 16:53:34.710000,0.06290056766160045
2611844290,2024-07-03 16:53:34.714000,0.06848562534334371
2611844290,2024-07-03 16:53:34.718000,0.07324665812122322
2611844290,2024-07-03 16:53:34.722000,0.07544405786485991
2611844290,2024-07-03 16:53:34.726000,0.07480314960629922
2611844290,2024-07-03 16:53:34.730000,0.07452847463834462
2611844290,2024-07-03 16:53:34.734000,0.07837392418970884
2611844290,2024-07-03 16:53:34.738000,0.08597326496978576
2611844290,2024-07-03 16:53:34.742000,0.0921076725874382
2611844290,2024-07-03 16:53:34.746000,0.09448818897637795
2611844290,2024-07-03 16:53:34.750000,0.09540377220289324
2611844290,2024-07-03 16:53:34.754000,0.09622779710675701
2611844290,2024-07-03 16:53:34.758000,0.09329793078190808
2611844290,2024-07-03 16:53:34.762000,0.08038820728804248
2611844290,2024-07-03 16:53:34.766000,0.05649148507599341
2611844290,2024-07-03 16:53:34.770000,0.02993957150704999
2611844290,2024-07-03 16:53:34.774000,0.008972715619849844
2611844290,2024-07-03 16:53:34.778000,-0.004394799487273393
2611844290,2024-07-03 16:53:34.782000,-0.012726606848562534
2611844290,2024-07-03 16:53:34.786000,-0.020051272660684856
2611844290,2024-07-03 16:53:34.790000,-0.03204541292803516
2611844290,2024-07-03 16:53:34.794000,-0.05273759384728072
2611844290,2024-07-03 16:53:34.798000,-0.08093755722395166
2611844290,2024-07-03 16:53:34.802000,-0.10813037905145578
2611844290,2024-07-03 16:53:34.806000,-0.11655374473539645
2611844290,2024-07-03 16:53:34.810000,-0.09384728071781726
2611844290,2024-07-03 16:53:34.814000,-0.05090642739425014
2611844290,2024-07-03 16:53:34.818000,-0.012451931880607947
2611844290,2024-07-03 16:53:34.822000,0.0014649331624244644
2611844290,2024-07-03 16:53:34.826000,-0.007599340780076909
2611844290,2024-07-03 16:53:34.830000,-0.009613623878410547
2611844290,2024-07-03 16:53:34.834000,0.02426295550265519
2611844290,2024-07-03 16:53:34.838000,0.08588170664713422
2611844290,2024-07-03 16:53:34.842000,0.14145760849661235
2611844290,2024-07-03 16:53:34.846000,0.1618751144479033
2611844290,2024-07-03 16:53:34.850000,0.13578099249221753
2611844290,2024-07-03 16:53:34.854000,0.06784471708478301
2611844290,2024-07-03 16:53:34.858000,-0.024812305438564365
2611844290,2024-07-03 16:53:34.862000,-0.11453946163706281
2611844290,2024-07-03 16:53:34.866000,-0.18760300311298297
2611844290,2024-07-03 16:53:34.870000,-0.2517853872917048
2611844290,2024-07-03 16:53:34.874000,-0.3009522065555759
2611844290,2024-07-03 16:53:34.878000,-0.3119392052737594
2611844290,2024-07-03 16:53:34.882000,-0.2797106757004212
2611844290,2024-07-03 16:53:34.886000,-0.22120490752609412
2611844290,2024-07-03 16:53:34.890000,-0.1598608313495697
2611844290,2024-07-03 16:53:34.894000,-0.11572971983153268
2611844290,2024-07-03 16:53:34.898000,-0.09604468046145395
2611844290,2024-07-03 16:53:34.902000,-0.09302325581395349
2611844290,2024-07-03 16:53:34.906000,-0.09522065555759018
2611844290,2024-07-03 16:53:34.910000,-0.09375572239516572
2611844290,2024-07-03 16:53:34.914000,-0.08194469877311848
2611844290,2024-07-03 16:53:34.918000,-0.062442776048342793
2611844290,2024-07-03 16:53:34.922000,-0.044405786485991576
2611844290,2024-07-03 16:53:34.926000,-0.0347006042849295
2611844290,2024-07-03 16:53:34.930000,-0.035982420802050906
2611844290,2024-07-03 16:53:34.934000,-0.045504486357809924
2611844290,2024-07-03 16:53:34.938000,-0.05548434352682659
2611844290,2024-07-03 16:53:34.942000,-0.06097784288591833
2611844290,2024-07-03 16:53:34.946000,-0.06262589269364585
2611844290,2024-07-03 16:53:34.950000,-0.06290056766160045
2611844290,2024-07-03 16:53:34.954000,-0.06326680095220656
2611844290,2024-07-03 16:53:34.958000,-0.06326680095220656
2611844290,2024-07-03 16:53:34.962000,-0.0615271928218275
2611844290,2024-07-03 16:53:34.966000,-0.05685771836659952
2611844290,2024-07-03 16:53:34.970000,-0.04898370261856803
2611844290,2024-07-03 16:53:34.974000,-0.0381798205456876
2611844290,2024-07-03 16:53:34.978000,-0.02700970518220106
2611844290,2024-07-03 16:53:34.982000,-0.01959348104742721
2611844290,2024-07-03 16:53:34.986000,-0.017121406335835927
2611844290,2024-07-03 16:53:34.990000,-0.01794543123969969
2611844290,2024-07-03 16:53:34.994000,-0.019868156015381798
2611844290,2024-07-03 16:53:34.998000,-0.020966855887200146
2611844290,2024-07-03 16:53:35.002000,-0.020234389305987914
2611844290,2024-07-03 16:53:35.006000,-0.018036989562351217
2611844290,2024-07-03 16:53:35.010000,-0.012909723493865592
2611844290,2024-07-03 16:53:35.014000,-0.0010986998718183483
2611844290,2024-07-03 16:53:35.018000,0.015290239882805347
2611844290,2024-07-03 16:53:35.022000,0.02993957150704999
2611844290,2024-07-03 16:53:35.026000,0.04129280351583959
2611844290,2024-07-03 16:53:35.030000,0.0523713605566746
2611844290,2024-07-03 16:53:35.034000,0.06436550082402491
2611844290,2024-07-03 16:53:35.038000,0.07562717451016297
2611844290,2024-07-03 16:53:35.042000,0.08478300677531588
2611844290,2024-07-03 16:53:35.046000,0.0911920893609229
2611844290,2024-07-03 16:53:35.050000,0.09522065555759018
2611844290,2024-07-03 16:53:35.054000,0.09805896355978759
2611844290,2024-07-03 16:53:35.058000,0.10217908807910639
2611844290,2024-07-03 16:53:35.062000,0.10932063724592565
2611844290,2024-07-03 16:53:35.066000,0.11710309467130563
2611844290,2024-07-03 16:53:35.070000,0.11920893609229079
2611844290,2024-07-03 16:53:35.074000,0.1106940120856986
2611844290,2024-07-03 16:53:35.078000,0.09265702252334737
2611844290,2024-07-03 16:53:35.082000,0.07278886650796558
2611844290,2024-07-03 16:53:35.086000,0.056766160043947994
2611844290,2024-07-03 16:53:35.090000,0.04220838674235488
2611844290,2024-07-03 16:53:35.094000,0.024903863761215894
2611844290,2024-07-03 16:53:35.098000,0.0061344076176524445
2611844290,2024-07-03 16:53:35.102000,-0.007782457425379967
2611844290,2024-07-03 16:53:35.106000,-0.01217725691265336
2611844290,2024-07-03 16:53:35.110000,-0.007690899102728438
2611844290,2024-07-03 16:53:35.114000,-0.0006409082585607032
2611844290,2024-07-03 16:53:35.118000,0.0008240249038637612
2611844290,2024-07-03 16:53:35.122000,-0.007782457425379967
2611844290,2024-07-03 16:53:35.126000,-0.026735030214246475
2611844290,2024-07-03 16:53:35.130000,-0.05072331074894708
2611844290,2024-07-03 16:53:35.134000,-0.07040835011902583
2611844290,2024-07-03 16:53:35.138000,-0.08047976561069402
2611844290,2024-07-03 16:53:35.142000,-0.08322651529023989
2611844290,2024-07-03 16:53:35.146000,-0.0823109320637246
2611844290,2024-07-03 16:53:35.150000,-0.07764145760849661
2611844290,2024-07-03 16:53:35.154000,-0.06757004211682842
2611844290,2024-07-03 16:53:35.158000,-0.05438564365500824
2611844290,2024-07-03 16:53:35.162000,-0.04486357809924922
2611844290,2024-07-03 16:53:35.166000,-0.0432155282915217
2611844290,2024-07-03 16:53:35.170000,-0.04843435268265885
2611844290,2024-07-03 16:53:35.174000,-0.05621681010803882
2611844290,2024-07-03 16:53:35.178000,-0.05987914301409998
2611844290,2024-07-03 16:53:35.182000,-0.055850576817432704
2611844290,2024-07-03 16:53:35.186000,-0.04880058597326497
2611844290,2024-07-03 16:53:35.190000,-0.04431422816334005
2611844290,2024-07-03 16:53:35.194000,-0.04248306171030947
2611844290,2024-07-03 16:53:35.198000,-0.04202527009705182
2611844290,2024-07-03 16:53:35.202000,-0.04431422816334005
2611844290,2024-07-03 16:53:35.206000,-0.0517304522981139
2611844290,2024-07-03 16:53:35.210000,-0.06326680095220656
2611844290,2024-07-03 16:53:35.214000,-0.07425379967039004
2611844290,2024-07-03 16:53:35.218000,-0.08139534883720931
2611844290,2024-07-03 16:53:35.222000,-0.08313495696758835
2611844290,2024-07-03 16:53:35.226000,-0.07617652444607215
2611844290,2024-07-03 16:53:35.230000,-0.05795641823841787
2611844290,2024-07-03 16:53:35.234000,-0.035066837575535616
2611844290,2024-07-03 16:53:35.238000,-0.021149972532503204
2611844290,2024-07-03 16:53:35.242000,-0.022248672404321553
2611844290,2024-07-03 16:53:35.246000,-0.03204541292803516
2611844290,2024-07-03 16:53:35.250000,-0.040835011902581944
2611844290,2024-07-03 16:53:35.254000,-0.04403955319538546
2611844290,2024-07-03 16:53:35.258000,-0.04019410364402124
2611844290,2024-07-03 16:53:35.262000,-0.02893242995788317
2611844290,2024-07-03 16:53:35.266000,-0.01409998168833547
2611844290,2024-07-03 16:53:35.270000,-0.003570774583409632
2611844290,2024-07-03 16:53:35.274000,-0.0005493499359091741
2611844290,2024-07-03 16:53:35.278000,-0.0021973997436366965
2611844290,2024-07-03 16:53:35.282000,-0.004761032777879509
2611844290,2024-07-03 16:53:35.286000,-0.0062259659403039735
2611844290,2024-07-03 16:53:35.290000,-0.0062259659403039735
2611844290,2024-07-03 16:53:35.294000,-0.005310382713788683
2611844290,2024-07-03 16:53:35.298000,-0.00466947445522798
2611844290,2024-07-03 16:53:35.302000,-0.00750778245742538
2611844290,2024-07-03 16:53:35.306000,-0.016205823109320637
2611844290,2024-07-03 16:53:35.310000,-0.028383080021973997
2611844290,2024-07-03 16:53:35.314000,-0.03763047060977843
2611844290,2024-07-03 16:53:35.318000,-0.04092657022523347
2611844290,2024-07-03 16:53:35.322000,-0.038820728804248306
2611844290,2024-07-03 16:53:35.326000,-0.032411646218641274
2611844290,2024-07-03 16:53:35.330000,-0.023896722212049075
2611844290,2024-07-03 16:53:35.334000,-0.01675517304522981
2611844290,2024-07-03 16:53:35.338000,-0.013275956784471708
2611844290,2024-07-03 16:53:35.342000,-0.012451931880607947
2611844290,2024-07-03 16:53:35.346000,-0.011719465299395715
2611844290,2024-07-03 16:53:35.350000,-0.00943050723310749
2611844290,2024-07-03 16:53:35.354000,-0.006500640908258561
2611844290,2024-07-03 16:53:35.358000,-0.004944149423182567
2611844290,2024-07-03 16:53:35.362000,-0.005127266068485625
2611844290,2024-07-03 16:53:35.366000,-0.0058597326496978575
2611844290,2024-07-03 16:53:35.370000,-0.0062259659403039735
2611844290,2024-07-03 16:53:35.374000,-0.006317524262955503
2611844290,2024-07-03 16:53:35.378000,-0.004577916132576451
2611844290,2024-07-03 16:53:35.382000,0.0011902581944698773
2611844290,2024-07-03 16:53:35.386000,0.010162973814319722
2611844290,2024-07-03 16:53:35.390000,0.019044131111518037
2611844290,2024-07-03 16:53:35.394000,0.028291521699322468
2611844290,2024-07-03 16:53:35.398000,0.03744735396447537
2611844290,2024-07-03 16:53:35.402000,0.03808826222303607
2611844290,2024-07-03 16:53:35.406000,0.024537630470609778
2611844290,2024-07-03 16:53:35.410000,0.004852591100531038
2611844290,2024-07-03 16:53:35.414000,-0.009522065555759018
2611844290,2024-07-03 16:53:35.418000,-0.015198681560153818
2611844290,2024-07-03 16:53:35.422000,-0.015290239882805347
2611844290,2024-07-03 16:53:35.426000,-0.014649331624244644
2611844290,2024-07-03 16:53:35.430000,-0.017579197949093572
2611844290,2024-07-03 16:53:35.434000,-0.024537630470609778
2611844290,2024-07-03 16:53:35.438000,-0.027925288408716352
2611844290,2024-07-03 16:53:35.442000,-0.01492400659219923
2611844290,2024-07-03 16:53:35.446000,0.009155832265152902
2611844290,2024-07-03 16:53:35.450000,0.019044131111518037
2611844290,2024-07-03 16:53:35.454000,0.008789598974546786
2611844290,2024-07-03 16:53:35.458000,0.0019227247756821095
2611844290,2024-07-03 16:53:35.462000,0.01492400659219923
2611844290,2024-07-03 16:53:35.466000,0.039827870353415125
2611844290,2024-07-03 16:53:35.470000,0.061435634499175974
2611844290,2024-07-03 16:53:35.474000,0.09045962277971067
2611844290,2024-07-03 16:53:35.478000,0.14924006592199232
2611844290,2024-07-03 16:53:35.482000,0.22340230726973082
2611844290,2024-07-03 16:53:35.486000,0.27385094305072333
2611844290,2024-07-03 16:53:35.490000,0.2720197765976927
2611844290,2024-07-03 16:53:35.494000,0.2057315509979857
2611844290,2024-07-03 16:53:35.498000,0.0886284563266801
2611844290,2024-07-03 16:53:35.502000,-0.037081120673869254
2611844290,2024-07-03 16:53:35.506000,-0.13468229262039919
2611844290,2024-07-03 16:53:35.510000,-0.18806079472624063
2611844290,2024-07-03 16:53:35.514000,-0.19190624427760483
2611844290,2024-07-03 16:53:35.518000,-0.16123420618934262
2611844290,2024-07-03 16:53:35.522000,-0.12104010254532137
2611844290,2024-07-03 16:53:35.526000,-0.08350119025819447
2611844290,2024-07-03 16:53:35.530000,-0.05438564365500824
2611844290,2024-07-03 16:53:35.534000,-0.0381798205456876
2611844290,2024-07-03 16:53:35.538000,-0.030672038088262223
2611844290,2024-07-03 16:53:35.542000,-0.0233473722761399
2611844290,2024-07-03 16:53:35.546000,-0.012085698590001831
2611844290,2024-07-03 16:53:35.550000,0.00027467496795458707
2611844290,2024-07-03 16:53:35.554000,0.008057132393334554
2611844290,2024-07-03 16:53:35.558000,0.009796740523713605
2611844290,2024-07-03 16:53:35.562000,0.009613623878410547
2611844290,2024-07-03 16:53:35.566000,0.008972715619849844
2611844290,2024-07-03 16:53:35.570000,0.0061344076176524445
2611844290,2024-07-03 16:53:35.574000,0.0021058414209851675
2611844290,2024-07-03 16:53:35.578000,-0.0016480498077275224
2611844290,2024-07-03 16:53:35.582000,-0.0062259659403039735
2611844290,2024-07-03 16:53:35.586000,-0.012085698590001831
2611844290,2024-07-03 16:53:35.590000,-0.018494781175608863
2611844290,2024-07-03 16:53:35.594000,-0.02435451382530672
2611844290,2024-07-03 16:53:35.598000,-0.027742171763413294
2611844290,2024-07-03 16:53:35.602000,-0.028291521699322468
2611844290,2024-07-03 16:53:35.606000,-0.027742171763413294
2611844290,2024-07-03 16:53:35.610000,-0.02728438015015565
2611844290,2024-07-03 16:53:35.614000,-0.02710126350485259
2611844290,2024-07-03 16:53:35.618000,-0.02700970518220106
2611844290,2024-07-03 16:53:35.622000,-0.027375938472807178
2611844290,2024-07-03 16:53:35.626000,-0.028657754989928584
2611844290,2024-07-03 16:53:35.630000,-0.03076359641091375
2611844290,2024-07-03 16:53:35.634000,-0.03268632118659586
2611844290,2024-07-03 16:53:35.638000,-0.0347006042849295
2611844290,2024-07-03 16:53:35.642000,-0.03744735396447537
2611844290,2024-07-03 16:53:35.646000,-0.03717267899652078
2611844290,2024-07-03 16:53:35.650000,-0.029390221571140816
2611844290,2024-07-03 16:53:35.654000,-0.01785387291704816
2611844290,2024-07-03 16:53:35.658000,-0.010162973814319722
2611844290,2024-07-03 16:53:35.662000,-0.008057132393334554
2611844290,2024-07-03 16:53:35.666000,-0.008881157297198315
2611844290,2024-07-03 16:53:35.670000,-0.010620765427577367
2611844290,2024-07-03 16:53:35.674000,-0.011994140267350302
2611844290,2024-07-03 16:53:35.678000,-0.010437648782274309
2611844290,2024-07-03 16:53:35.682000,-0.0004577916132576451
2611844290,2024-07-03 16:53:35.686000,0.023255813953488372
2611844290,2024-07-03 16:53:35.690000,0.05649148507599341
2611844290,2024-07-03 16:53:35.694000,0.08661417322834646
2611844290,2024-07-03 16:53:35.698000,0.10611609595312214
2611844290,2024-07-03 16:53:35.702000,0.11682841970335103
2611844290,2024-07-03 16:53:35.706000,0.1198498443508515
2611844290,2024-07-03 16:53:35.710000,0.11234206189342612
2611844290,2024-07-03 16:53:35.714000,0.09467130562168101
2611844290,2024-07-03 16:53:35.718000,0.07269730818531404
2611844290,2024-07-03 16:53:35.722000,0.050997985716901666
2611844290,2024-07-03 16:53:35.726000,0.032411646218641274
2611844290,2024-07-03 16:53:35.730000,0.01977659769273027
2611844290,2024-07-03 16:53:35.734000,0.012818165171214063
2611844290,2024-07-03 16:53:35.738000,0.008789598974546786
2611844290,2024-07-03 16:53:35.742000,0.006866874198864677
2611844290,2024-07-03 16:53:35.746000,0.006683757553561619
2611844290,2024-07-03 16:53:35.750000,0.005493499359091741
2611844290,2024-07-03 16:53:35.754000,0.00027467496795458707
2611844290,2024-07-03 16:53:35.758000,-0.007874015748031496
2611844290,2024-07-03 16:53:35.762000,-0.01309284013916865
2611844290,2024-07-03 16:53:35.766000,-0.016114264786669108
2611844290,2024-07-03 16:53:35.770000,-0.02728438015015565
2611844290,2024-07-03 16:53:35.774000,-0.04779344442409815
2611844290,2024-07-03 16:53:35.778000,-0.06409082585607032
2611844290,2024-07-03 16:53:35.782000,-0.06418238417872185
2611844290,2024-07-03 16:53:35.786000,-0.04806811939205274
2611844290,2024-07-03 16:53:35.790000,-0.025727888665079655
2611844290,2024-07-03 16:53:35.794000,-0.009705182201062076
2611844290,2024-07-03 16:53:35.798000,-0.0029298663248489287
2611844290,2024-07-03 16:53:35.802000,0.0012818165171214063
2611844290,2024-07-03 16:53:35.806000,0.00659219923091009
2611844290,2024-07-03 16:53:35.810000,0.011353232008789599
2611844290,2024-07-03 16:53:35.814000,0.013825306720380882
2611844290,2024-07-03 16:53:35.818000,0.015107123237502289
2611844290,2024-07-03 16:53:35.822000,0.015198681560153818
2611844290,2024-07-03 16:53:35.826000,0.01025453213697125
2611844290,2024-07-03 16:53:35.830000,-0.003937007874015748
2611844290,2024-07-03 16:53:35.834000,-0.023622047244094488
2611844290,2024-07-03 16:53:35.838000,-0.037996703900384544
2611844290,2024-07-03 16:53:35.842000,-0.040743453579930415
2611844290,2024-07-03 16:53:35.846000,-0.03341878776780809
2611844290,2024-07-03 16:53:35.850000,-0.021241530855154733
2611844290,2024-07-03 16:53:35.854000,-0.009522065555759018
2611844290,2024-07-03 16:53:35.858000,-0.0012818165171214063
2611844290,2024-07-03 16:53:35.862000,0.0024720747115912836
2611844290,2024-07-03 16:53:35.866000,0.0031129829701519868
2611844290,2024-07-03 16:53:35.870000,0.0025636330342428126
2611844290,2024-07-03 16:53:35.874000,0.0021973997436366965
2611844290,2024-07-03 16:53:35.878000,0.0022889580662882256
2611844290,2024-07-03 16:53:35.882000,0.0029298663248489287
2611844290,2024-07-03 16:53:35.886000,0.003845449551364219
2611844290,2024-07-03 16:53:35.890000,0.004486357809924922
2611844290,2024-07-03 16:53:35.894000,0.00466947445522798
2611844290,2024-07-03 16:53:35.898000,0.004577916132576451
2611844290,2024-07-03 16:53:35.902000,0.004211682841970335
2611844290,2024-07-03 16:53:35.906000,0.003937007874015748
2611844290,2024-07-03 16:53:35.910000,0.003937007874015748
2611844290,2024-07-03 16:53:35.914000,0.004303241164621864
2611844290,2024-07-03 16:53:35.918000,0.004211682841970335
2611844290,2024-07-03 16:53:35.922000,0.0020142830983336385
2611844290,2024-07-03 16:53:35.926000,-0.0029298663248489287
2611844290,2024-07-03 16:53:35.930000,-0.009155832265152902
2611844290,2024-07-03 16:53:35.934000,-0.013367515107123237
2611844290,2024-07-03 16:53:35.938000,-0.014649331624244644
2611844290,2024-07-03 16:53:35.942000,-0.014557773301593115
2611844290,2024-07-03 16:53:35.946000,-0.014191540010986999
2611844290,2024-07-03 16:53:35.950000,-0.013642190075077824
2611844290,2024-07-03 16:53:35.954000,-0.012360373557956418
2611844290,2024-07-03 16:53:35.958000,-0.010986998718183483
2611844290,2024-07-03 16:53:35.962000,-0.009522065555759018
2611844290,2024-07-03 16:53:35.966000,-0.004852591100531038
2611844290,2024-07-03 16:53:35.970000,0.007049990844167735
2611844290,2024-07-03 16:53:35.974000,0.023713605566746017
2611844290,2024-07-03 16:53:35.978000,0.03589086247939938
2611844290,2024-07-03 16:53:35.982000,0.03772202893242996
2611844290,2024-07-03 16:53:35.986000,0.030214246475004577
2611844290,2024-07-03 16:53:35.990000,0.01886101446621498
2611844290,2024-07-03 16:53:35.994000,0.011078557040835012
2611844290,2024-07-03 16:53:35.998000,0.012909723493865592
2611844290,2024-07-03 16:53:36.002000,0.026918146859549533
2611844290,2024-07-03 16:53:36.006000,0.048159677714704266
2611844290,2024-07-03 16:53:36.010000,0.06757004211682842
2611844290,2024-07-03 16:53:36.014000,0.08102911554660319
2611844290,2024-07-03 16:53:36.018000,0.08817066471342246
2611844290,2024-07-03 16:53:36.022000,0.08633949826039188
2611844290,2024-07-03 16:53:36.026000,0.07324665812122322
2611844290,2024-07-03 16:53:36.030000,0.052096685588720014
2611844290,2024-07-03 16:53:36.034000,0.031221388024171397
2611844290,2024-07-03 16:53:36.038000,0.019501922724775682
2611844290,2024-07-03 16:53:36.042000,0.01867789782091192
2611844290,2024-07-03 16:53:36.046000,0.022706464017579198
2611844290,2024-07-03 16:53:36.050000,0.02545321369712507
2611844290,2024-07-03 16:53:36.054000,0.027467496795458707
2611844290,2024-07-03 16:53:36.058000,0.031221388024171397
2611844290,2024-07-03 16:53:36.062000,0.03451748763962644
2611844290,2024-07-03 16:53:36.066000,0.033235671122505035
2611844290,2024-07-03 16:53:36.070000,0.027742171763413294
2611844290,2024-07-03 16:53:36.074000,0.025819446987731184
2611844290,2024-07-03 16:53:36.078000,0.03497527925288409
2611844290,2024-07-03 16:53:36.082000,0.04934993590917414
2611844290,2024-07-03 16:53:36.086000,0.057590184947811755
2611844290,2024-07-03 16:53:36.090000,0.06665445889031313
2611844290,2024-07-03 16:53:36.094000,0.09631935542940853
2611844290,2024-07-03 16:53:36.098000,0.14942318256729537
2611844290,2024-07-03 16:53:36.102000,0.20545687603003113
2611844290,2024-07-03 16:53:36.106000,0.2425379967039004
2611844290,2024-07-03 16:53:36.110000,0.24839772935359825
2611844290,2024-07-03 16:53:36.114000,0.21497894158579015
2611844290,2024-07-03 16:53:36.118000,0.14273942501373374
2611844290,2024-07-03 16:53:36.122000,0.04761032777879509
2611844290,2024-07-03 16:53:36.126000,-0.04513825306720381
2611844290,2024-07-03 16:53:36.130000,-0.11746932796191174
2611844290,2024-07-03 16:53:36.134000,-0.16041018128547885
2611844290,2024-07-03 16:53:36.138000,-0.16663614722578282
2611844290,2024-07-03 16:53:36.142000,-0.13651345907342977
2611844290,2024-07-03 16:53:36.146000,-0.08872001464933163
2611844290,2024-07-03 16:53:36.150000,-0.049166819263871085
2611844290,2024-07-03 16:53:36.154000,-0.030214246475004577
2611844290,2024-07-03 16:53:36.158000,-0.023255813953488372
2611844290,2024-07-03 16:53:36.162000,-0.017121406335835927
2611844290,2024-07-03 16:53:36.166000,-0.009705182201062076
2611844290,2024-07-03 16:53:36.170000,-0.003387657938106574
2611844290,2024-07-03 16:53:36.174000,0.0003662332906061161
2611844290,2024-07-03 16:53:36.178000,0.0022889580662882256
2611844290,2024-07-03 16:53:36.182000,0.00375389122871269
2611844290,2024-07-03 16:53:36.186000,0.006317524262955503
2611844290,2024-07-03 16:53:36.190000,0.011078557040835012
2611844290,2024-07-03 16:53:36.194000,0.01684673136788134
2611844290,2024-07-03 16:53:36.198000,0.019410364402124153
2611844290,2024-07-03 16:53:36.202000,0.014740889946896173
2611844290,2024-07-03 16:53:36.206000,0.00466947445522798
2611844290,2024-07-03 16:53:36.210000,-0.0017396081303790514
2611844290,2024-07-03 16:53:36.214000,-0.00018311664530305805
2611844290,2024-07-03 16:53:36.218000,0.0031129829701519868
2611844290,2024-07-03 16:53:36.222000,0.00375389122871269
2611844290,2024-07-03 16:53:36.226000,0.004394799487273393
2611844290,2024-07-03 16:53:36.230000,0.005676616004394799
2611844290,2024-07-03 16:53:36.234000,0.005310382713788683
2611844290,2024-07-03 16:53:36.238000,0.003662332906061161
2611844290,2024-07-03 16:53:36.242000,0.003204541292803516
2611844290,2024-07-03 16:53:36.246000,0.005218824391137154
2611844290,2024-07-03 16:53:36.250000,0.008972715619849844
2611844290,2024-07-03 16:53:36.254000,0.012268815235304889
2611844290,2024-07-03 16:53:36.258000,0.01400842336568394
2611844290,2024-07-03 16:53:36.262000,0.01501556491485076
2611844290,2024-07-03 16:53:36.266000,0.017396081303790514
2611844290,2024-07-03 16:53:36.270000,0.024629188793261307
2611844290,2024-07-03 16:53:36.274000,0.03937007874015748
2611844290,2024-07-03 16:53:36.278000,0.05914667643288775
2611844290,2024-07-03 16:53:36.282000,0.07846548251236038
2611844290,2024-07-03 16:53:36.286000,0.09329793078190808
2611844290,2024-07-03 16:53:36.290000,0.10053103827137887
2611844290,2024-07-03 16:53:36.294000,0.0971433803332723
2611844290,2024-07-03 16:53:36.298000,0.08340963193554295
2611844290,2024-07-03 16:53:36.302000,0.06766160043947995
2611844290,2024-07-03 16:53:36.306000,0.062442776048342793
2611844290,2024-07-03 16:53:36.310000,0.07150704999084417
2611844290,2024-07-03 16:53:36.314000,0.08789598974546786
2611844290,2024-07-03 16:53:36.318000,0.10327778795092474
2611844290,2024-07-03 16:53:36.322000,0.11307452847463835
2611844290,2024-07-03 16:53:36.326000,0.11756088628456327
2611844290,2024-07-03 16:53:36.330000,0.11994140267350302
2611844290,2024-07-03 16:53:36.334000,0.12360373557956418
2611844290,2024-07-03 16:53:36.338000,0.12946346822926205
2611844290,2024-07-03 16:53:36.342000,0.13211865958615637
2611844290,2024-07-03 16:53:36.346000,0.12195568577183666
2611844290,2024-07-03 16:53:36.350000,0.09631935542940853
2611844290,2024-07-03 16:53:36.354000,0.06427394250137337
2611844290,2024-07-03 16:53:36.358000,0.03772202893242996
2611844290,2024-07-03 16:53:36.362000,0.01977659769273027
2611844290,2024-07-03 16:53:36.366000,0.007324665812122322
2611844290,2024-07-03 16:53:36.370000,-0.0006409082585607032
2611844290,2024-07-03 16:53:36.374000,-0.004303241164621864
2611844290,2024-07-03 16:53:36.378000,-0.005768174327046328
2611844290,2024-07-03 16:53:36.382000,-0.010620765427577367
2611844290,2024-07-03 16:53:36.386000,-0.024171397180003662
2611844290,2024-07-03 16:53:36.390000,-0.04394799487273393
2611844290,2024-07-03 16:53:36.394000,-0.05997070133675151
2611844290,2024-07-03 16:53:36.398000,-0.06610510895440395
2611844290,2024-07-03 16:53:36.402000,-0.06454861746932797
2611844290,2024-07-03 16:53:36.406000,-0.06015381798205457
2611844290,2024-07-03 16:53:36.410000,-0.05466031862296283
2611844290,2024-07-03 16:53:36.414000,-0.04696941952023439
2611844290,2024-07-03 16:53:36.418000,-0.03735579564182384
2611844290,2024-07-03 16:53:36.422000,-0.027742171763413294
2611844290,2024-07-03 16:53:36.426000,-0.01794543123969969
2611844290,2024-07-03 16:53:36.430000,-0.008331807361289141
2611844290,2024-07-03 16:53:36.434000,-0.0024720747115912836
2611844290,2024-07-03 16:53:36.438000,-0.0024720747115912836
2611844290,2024-07-03 16:53:36.442000,-0.004852591100531038
2611844290,2024-07-03 16:53:36.446000,-0.0031129829701519868
2611844290,2024-07-03 16:53:36.450000,0.004028566196667277
2611844290,2024-07-03 16:53:36.454000,0.012451931880607947
2611844290,2024-07-03 16:53:36.458000,0.020875297564548617
2611844290,2024-07-03 16:53:36.462000,0.03360190441311115
2611844290,2024-07-03 16:53:36.466000,0.049258377586522614
2611844290,2024-07-03 16:53:36.470000,0.05969602636879692
2611844290,2024-07-03 16:53:36.474000,0.0602453763047061
2611844290,2024-07-03 16:53:36.478000,0.05557590184947812
2611844290,2024-07-03 16:53:36.482000,0.055667460172129646
2611844290,2024-07-03 16:53:36.486000,0.06628822559970701
2611844290,2024-07-03 16:53:36.490000,0.08405054019410364
2611844290,2024-07-03 16:53:36.494000,0.10227064640175793
2611844290,2024-07-03 16:53:36.498000,0.11691997802600257
2611844290,2024-07-03 16:53:36.502000,0.12552646035524628
2611844290,2024-07-03 16:53:36.506000,0.12442776048342795
2611844290,2024-07-03 16:53:36.510000,0.11124336202160777
2611844290,2024-07-03 16:53:36.514000,0.09128364768357444
2611844290,2024-07-03 16:53:36.518000,0.07498626625160228
2611844290,2024-07-03 16:53:36.522000,0.0674784837941769
2611844290,2024-07-03 16:53:36.526000,0.06647134224501007
2611844290,2024-07-03 16:53:36.530000,0.06802783373008607
2611844290,2024-07-03 16:53:36.534000,0.06912653360190442
2611844290,2024-07-03 16:53:36.538000,0.06637978392235855
2611844290,2024-07-03 16:53:36.542000,0.057590184947811755
2611844290,2024-07-03 16:53:36.546000,0.04522981138985534
2611844290,2024-07-03 16:53:36.550000,0.034059696026368796
2611844290,2024-07-03 16:53:36.554000,0.024537630470609778
2611844290,2024-07-03 16:53:36.558000,0.014832448269547702
2611844290,2024-07-03 16:53:36.562000,0.004394799487273393
2611844290,2024-07-03 16:53:36.566000,-0.005768174327046328
2611844290,2024-07-03 16:53:36.570000,-0.014191540010986999
2611844290,2024-07-03 16:53:36.574000,-0.01876945614356345
2611844290,2024-07-03 16:53:36.578000,-0.020142830983336385
2611844290,2024-07-03 16:53:36.582000,-0.02151620582310932
2611844290,2024-07-03 16:53:36.586000,-0.02609412195568577
2611844290,2024-07-03 16:53:36.590000,-0.03387657938106574
2611844290,2024-07-03 16:53:36.594000,-0.04129280351583959
2611844290,2024-07-03 16:53:36.598000,-0.046328511261673685
2611844290,2024-07-03 16:53:36.602000,-0.052829152169932246
2611844290,2024-07-03 16:53:36.606000,-0.06280900933894891
2611844290,2024-07-03 16:53:36.610000,-0.07141549166819264
2611844290,2024-07-03 16:53:36.614000,-0.07516938289690533
2611844290,2024-07-03 16:53:36.618000,-0.07416224134773851
2611844290,2024-07-03 16:53:36.622000,-0.0687603003112983
2611844290,2024-07-03 16:53:36.626000,-0.06290056766160045
2611844290,2024-07-03 16:53:36.630000,-0.06290056766160045
2611844290,2024-07-03 16:53:36.634000,-0.0722395165720564
2611844290,2024-07-03 16:53:36.638000,-0.08716352316425563
2611844290,2024-07-03 16:53:36.642000,-0.09567844717084784
2611844290,2024-07-03 16:53:36.646000,-0.09110053103827138
2611844290,2024-07-03 16:53:36.650000,-0.08102911554660319
2611844290,2024-07-03 16:53:36.654000,-0.07480314960629922
2611844290,2024-07-03 16:53:36.658000,-0.07187328328145029
2611844290,2024-07-03 16:53:36.662000,-0.06811939205273759
2611844290,2024-07-03 16:53:36.666000,-0.0630836843069035
2611844290,2024-07-03 16:53:36.670000,-0.0608862845632668
2611844290,2024-07-03 16:53:36.674000,-0.06464017579197949
2611844290,2024-07-03 16:53:36.678000,-0.07196484160410181
2611844290,2024-07-03 16:53:36.682000,-0.07928950741622413
2611844290,2024-07-03 16:53:36.686000,-0.08524079838857353
2611844290,2024-07-03 16:53:36.690000,-0.08872001464933163
2611844290,2024-07-03 16:53:36.694000,-0.08963559787584692
2611844290,2024-07-03 16:53:36.698000,-0.08945248123054386
2611844290,2024-07-03 16:53:36.702000,-0.09000183116645304
2611844290,2024-07-03 16:53:36.706000,-0.09219923091008973
2611844290,2024-07-03 16:53:36.710000,-0.09567844717084784
2611844290,2024-07-03 16:53:36.714000,-0.09961545504486358
2611844290,2024-07-03 16:53:36.718000,-0.10455960446804614
2611844290,2024-07-03 16:53:36.722000,-0.11032777879509248
2611844290,2024-07-03 16:53:36.726000,-0.11508881157297199
2611844290,2024-07-03 16:53:36.730000,-0.11508881157297199
2611844290,2024-07-03 16:53:36.734000,-0.10803882072880425
2611844290,2024-07-03 16:53:36.738000,-0.09696026368796924
2611844290,2024-07-03 16:53:36.742000,-0.07974729902948179
2611844290,2024-07-03 16:53:36.746000,-0.0495330525544772
2611844290,2024-07-03 16:53:36.750000,-0.011811023622047244
2611844290,2024-07-03 16:53:36.754000,0.022798022340230727
2611844290,2024-07-03 16:53:36.758000,0.05511811023622047
2611844290,2024-07-03 16:53:36.762000,0.08734663980955869
2611844290,2024-07-03 16:53:36.766000,0.10877128731001648
2611844290,2024-07-03 16:53:36.770000,0.099340780076909
2611844290,2024-07-03 16:53:36.774000,0.043673319904779344
2611844290,2024-07-03 16:53:36.778000,-0.05072331074894708
2611844290,2024-07-03 16:53:36.782000,-0.15043032411646218
2611844290,2024-07-03 16:53:36.786000,-0.2217542574620033
2611844290,2024-07-03 16:53:36.790000,-0.25004577916132575
2611844290,2024-07-03 16:53:36.794000,-0.24015748031496062
2611844290,2024-07-03 16:53:36.798000,-0.21296465848745652
2611844290,2024-07-03 16:53:36.802000,-0.1851309284013917
2611844290,2024-07-03 16:53:36.806000,-0.15894524812305438
2611844290,2024-07-03 16:53:36.810000,-0.13431605932979307
2611844290,2024-07-03 16:53:36.814000,-0.11215894524812306
2611844290,2024-07-03 16:53:36.818000,-0.09567844717084784
2611844290,2024-07-03 16:53:36.822000,-0.08752975645486175
2611844290,2024-07-03 16:53:36.826000,-0.08194469877311848
2611844290,2024-07-03 16:53:36.830000,-0.07150704999084417
2611844290,2024-07-03 16:53:36.834000,-0.05694927668925105
2611844290,2024-07-03 16:53:36.838000,-0.04596227797106757
2611844290,2024-07-03 16:53:36.842000,-0.04202527009705182
2611844290,2024-07-03 16:53:36.846000,-0.04202527009705182
2611844290,2024-07-03 16:53:36.850000,-0.04229994506500641
2611844290,2024-07-03 16:53:36.854000,-0.041659036806445705
2611844290,2024-07-03 16:53:36.858000,-0.041018128547885
2611844290,2024-07-03 16:53:36.862000,-0.040743453579930415
2611844290,2024-07-03 16:53:36.866000,-0.040651895257278886
2611844290,2024-07-03 16:53:36.870000,-0.04028566196667277
2611844290,2024-07-03 16:53:36.874000,-0.03872917048159678
2611844290,2024-07-03 16:53:36.878000,-0.034151254349020325
2611844290,2024-07-03 16:53:36.882000,-0.024995422083867423
2611844290,2024-07-03 16:53:36.886000,-0.01409998168833547
2611844290,2024-07-03 16:53:36.890000,-0.006500640908258561
2611844290,2024-07-03 16:53:36.894000,-0.003662332906061161
2611844290,2024-07-03 16:53:36.898000,-0.0030214246475004577
2611844290,2024-07-03 16:53:36.902000,-0.0020142830983336385
2611844290,2024-07-03 16:53:36.906000,0.0003662332906061161
2611844290,2024-07-03 16:53:36.910000,0.003479216260758103
2611844290,2024-07-03 16:53:36.914000,0.006683757553561619
2611844290,2024-07-03 16:53:36.918000,0.00750778245742538
2611844290,2024-07-03 16:53:36.922000,0.0009155832265152902
2611844290,2024-07-03 16:53:36.926000,-0.010986998718183483
2611844290,2024-07-03 16:53:36.930000,-0.019501922724775682
2611844290,2024-07-03 16:53:36.934000,-0.01867789782091192
2611844290,2024-07-03 16:53:36.938000,-0.008789598974546786
2611844290,2024-07-03 16:53:36.942000,0.007690899102728438
2611844290,2024-07-03 16:53:36.946000,0.027925288408716352
2611844290,2024-07-03 16:53:36.950000,0.049990844167734846
2611844290,2024-07-03 16:53:36.954000,0.07361289141182933
2611844290,2024-07-03 16:53:36.958000,0.10016480498077275
2611844290,2024-07-03 16:53:36.962000,0.12570957700054936
2611844290,2024-07-03 16:53:36.966000,0.13889397546236953
2611844290,2024-07-03 16:53:36.970000,0.13459073429774768
2611844290,2024-07-03 16:53:36.974000,0.12168101080388208
2611844290,2024-07-03 16:53:36.978000,0.11380699505585058
2611844290,2024-07-03 16:53:36.982000,0.11527192821827505
2611844290,2024-07-03 16:53:36.986000,0.11902581944698773
2611844290,2024-07-03 16:53:36.990000,0.11820179454312398
2611844290,2024-07-03 16:53:36.994000,0.11307452847463835
2611844290,2024-07-03 16:53:36.998000,0.10492583775865226
2611844290,2024-07-03 16:53:37.002000,0.09229078923274125
2611844290,2024-07-03 16:53:37.006000,0.07553561618751145
2611844290,2024-07-03 16:53:37.010000,0.05969602636879692
2611844290,2024-07-03 16:53:37.014000,0.04944149423182567
2611844290,2024-07-03 16:53:37.018000,0.04413111151803699
2611844290,2024-07-03 16:53:37.022000,0.04147592016114265
2611844290,2024-07-03 16:53:37.026000,0.04010254532136971
2611844290,2024-07-03 16:53:37.030000,0.037081120673869254
2611844290,2024-07-03 16:53:37.034000,0.02710126350485259
2611844290,2024-07-03 16:53:37.038000,0.008240249038637612
2611844290,2024-07-03 16:53:37.042000,-0.014649331624244644
2611844290,2024-07-03 16:53:37.046000,-0.033235671122505035
2611844290,2024-07-03 16:53:37.050000,-0.042574620032960996
2611844290,2024-07-03 16:53:37.054000,-0.044405786485991576
2611844290,2024-07-03 16:53:37.058000,-0.043490203259476286
2611844290,2024-07-03 16:53:37.062000,-0.04248306171030947
2611844290,2024-07-03 16:53:37.066000,-0.04202527009705182
2611844290,2024-07-03 16:53:37.070000,-0.04239150338765794
2611844290,2024-07-03 16:53:37.074000,-0.04422266984068852
2611844290,2024-07-03 16:53:37.078000,-0.04761032777879509
2611844290,2024-07-03 16:53:37.082000,-0.0517304522981139
2611844290,2024-07-03 16:53:37.086000,-0.05594213514008423
2611844290,2024-07-03 16:53:37.090000,-0.05905511811023622
2611844290,2024-07-03 16:53:37.094000,-0.059421351400842336
2611844290,2024-07-03 16:53:37.098000,-0.0574070683025087
2611844290,2024-07-03 16:53:37.102000,-0.05429408533235671
2611844290,2024-07-03 16:53:37.106000,-0.05054019410364402
2611844290,2024-07-03 16:53:37.110000,-0.04614539461637063
2611844290,2024-07-03 16:53:37.114000,-0.04312396996887017
2611844290,2024-07-03 16:53:37.118000,-0.04403955319538546
2611844290,2024-07-03 16:53:37.122000,-0.05081486907159861
2611844290,2024-07-03 16:53:37.126000,-0.06198498443508515
2611844290,2024-07-03 16:53:37.130000,-0.07196484160410181
2611844290,2024-07-03 16:53:37.134000,-0.07581029115546603
2611844290,2024-07-03 16:53:37.138000,-0.07269730818531404
2611844290,2024-07-03 16:53:37.142000,-0.0650064090825856
2611844290,2024-07-03 16:53:37.146000,-0.05704083501190258
2611844290,2024-07-03 16:53:37.150000,-0.05163889397546237
2611844290,2024-07-03 16:53:37.154000,-0.047244094488188976
2611844290,2024-07-03 16:53:37.158000,-0.04129280351583959
2611844290,2024-07-03 16:53:37.162000,-0.03387657938106574
2611844290,2024-07-03 16:53:37.166000,-0.02801684673136788
2611844290,2024-07-03 16:53:37.170000,-0.025819446987731184
2611844290,2024-07-03 16:53:37.174000,-0.027925288408716352
2611844290,2024-07-03 16:53:37.178000,-0.03460904596227797
2611844290,2024-07-03 16:53:37.182000,-0.042757736678264054
2611844290,2024-07-03 16:53:37.186000,-0.04568760300311298
2611844290,2024-07-03 16:53:37.190000,-0.039736312030763596
2611844290,2024-07-03 16:53:37.194000,-0.028474638344625526
2611844290,2024-07-03 16:53:37.198000,-0.018128547885002746
2611844290,2024-07-03 16:53:37.202000,-0.01025453213697125
2611844290,2024-07-03 16:53:37.206000,-0.003479216260758103
2611844290,2024-07-03 16:53:37.210000,0.0013733748397729353
2611844290,2024-07-03 16:53:37.214000,0.004211682841970335
2611844290,2024-07-03 16:53:37.218000,0.00659219923091009
2611844290,2024-07-03 16:53:37.222000,0.008972715619849844
2611844290,2024-07-03 16:53:37.226000,0.011444790331441128
2611844290,2024-07-03 16:53:37.230000,0.013275956784471708
2611844290,2024-07-03 16:53:37.234000,0.013733748397729353
2611844290,2024-07-03 16:53:37.238000,0.015473356528108405
2611844290,2024-07-03 16:53:37.242000,0.02151620582310932
2611844290,2024-07-03 16:53:37.246000,0.028840871635231642
2611844290,2024-07-03 16:53:37.250000,0.033235671122505035
2611844290,2024-07-03 16:53:37.254000,0.035158395898187145
2611844290,2024-07-03 16:53:37.258000,0.03625709577000549
2611844290,2024-07-03 16:53:37.262000,0.037081120673869254
2611844290,2024-07-03 16:53:37.266000,0.03763047060977843
2611844290,2024-07-03 16:53:37.270000,0.03772202893242996
2611844290,2024-07-03 16:53:37.274000,0.035249954220838674
2611844290,2024-07-03 16:53:37.278000,0.028840871635231642
2611844290,2024-07-03 16:53:37.282000,0.020875297564548617
2611844290,2024-07-03 16:53:37.286000,0.015473356528108405
2611844290,2024-07-03 16:53:37.290000,0.014191540010986999
2611844290,2024-07-03 16:53:37.294000,0.015564914850759934
2611844290,2024-07-03 16:53:37.298000,0.017487639626442043
2611844290,2024-07-03 16:53:37.302000,0.01867789782091192
2611844290,2024-07-03 16:53:37.306000,0.019501922724775682
2611844290,2024-07-03 16:53:37.310000,0.020234389305987914
2611844290,2024-07-03 16:53:37.314000,0.020783739241897088
2611844290,2024-07-03 16:53:37.318000,0.020142830983336385
2611844290,2024-07-03 16:53:37.322000,0.016663614722578282
2611844290,2024-07-03 16:53:37.326000,0.013459073429774766
2611844290,2024-07-03 16:53:37.330000,0.017029848013184398
2611844290,2024-07-03 16:53:37.334000,0.028383080021973997
2611844290,2024-07-03 16:53:37.338000,0.042666178355612525
2611844290,2024-07-03 16:53:37.342000,0.05823109320637246
2611844290,2024-07-03 16:53:37.346000,0.07361289141182933
2611844290,2024-07-03 16:53:37.350000,0.08240249038637612
2611844290,2024-07-03 16:53:37.354000,0.07874015748031496
2611844290,2024-07-03 16:53:37.358000,0.0639992675334188
2611844290,2024-07-03 16:53:37.362000,0.04577916132576451
2611844290,2024-07-03 16:53:37.366000,0.03268632118659586
2611844290,2024-07-03 16:53:37.370000,0.027925288408716352
2611844290,2024-07-03 16:53:37.374000,0.02810840505401941
2611844290,2024-07-03 16:53:37.378000,0.028291521699322468
2611844290,2024-07-03 16:53:37.382000,0.025636330342428126
2611844290,2024-07-03 16:53:37.386000,0.01968503937007874
2611844290,2024-07-03 16:53:37.390000,0.01025453213697125
2611844290,2024-07-03 16:53:37.394000,-0.0021973997436366965
2611844290,2024-07-03 16:53:37.398000,-0.013367515107123237
2611844290,2024-07-03 16:53:37.402000,-0.01968503937007874
2611844290,2024-07-03 16:53:37.406000,-0.0205090642739425
2611844290,2024-07-03 16:53:37.410000,-0.010803882072880425
2611844290,2024-07-03 16:53:37.414000,0.015748031496062992
2611844290,2024-07-03 16:53:37.418000,0.062259659403039735
2611844290,2024-07-03 16:53:37.422000,0.1252517853872917
2611844290,2024-07-03 16:53:37.426000,0.1898919611792712
2611844290,2024-07-03 16:53:37.430000,0.23896722212049076
2611844290,2024-07-03 16:53:37.434000,0.26387108588170666
2611844290,2024-07-03 16:53:37.438000,0.25114447903314413
2611844290,2024-07-03 16:53:37.442000,0.1857718366599524
2611844290,2024-07-03 16:53:37.446000,0.07782457425379967
2611844290,2024-07-03 16:53:37.450000,-0.04495513642190075
2611844290,2024-07-03 16:53:37.454000,-0.15574070683025087
2611844290,2024-07-03 16:53:37.458000,-0.21946529939571507
2611844290,2024-07-03 16:53:37.462000,-0.21351400842336568
2611844290,2024-07-03 16:53:37.466000,-0.1599523896722212
2611844290,2024-07-03 16:53:37.470000,-0.09631935542940853
2611844290,2024-07-03 16:53:37.474000,-0.045504486357809924
2611844290,2024-07-03 16:53:37.478000,-0.020234389305987914
2611844290,2024-07-03 16:53:37.482000,-0.01684673136788134
2611844290,2024-07-03 16:53:37.486000,-0.020051272660684856
2611844290,2024-07-03 16:53:37.490000,-0.021882439113715436
2611844290,2024-07-03 16:53:37.494000,-0.022248672404321553
2611844290,2024-07-03 16:53:37.498000,-0.02243178904962461
2611844290,2024-07-03 16:53:37.502000,-0.023164255630836843
2611844290,2024-07-03 16:53:37.506000,-0.023622047244094488
2611844290,2024-07-03 16:53:37.510000,-0.020875297564548617
2611844290,2024-07-03 16:53:37.514000,-0.012451931880607947
2611844290,2024-07-03 16:53:37.518000,-0.0006409082585607032
2611844290,2024-07-03 16:53:37.522000,0.008789598974546786
2611844290,2024-07-03 16:53:37.526000,0.013275956784471708
2611844290,2024-07-03 16:53:37.530000,0.013916865043032411
2611844290,2024-07-03 16:53:37.534000,0.01309284013916865
2611844290,2024-07-03 16:53:37.538000,0.011902581944698773
2611844290,2024-07-03 16:53:37.542000,0.01025453213697125
2611844290,2024-07-03 16:53:37.546000,0.007324665812122322
2611844290,2024-07-03 16:53:37.550000,0.003570774583409632
2611844290,2024-07-03 16:53:37.554000,0.0026551913568943417
2611844290,2024-07-03 16:53:37.558000,0.007599340780076909
2611844290,2024-07-03 16:53:37.562000,0.01785387291704816
2611844290,2024-07-03 16:53:37.566000,0.028657754989928584
2611844290,2024-07-03 16:53:37.570000,0.036165537447353964
2611844290,2024-07-03 16:53:37.574000,0.03964475370811207
2611844290,2024-07-03 16:53:37.578000,0.04046877861197583
2611844290,2024-07-03 16:53:37.582000,0.039827870353415125
2611844290,2024-07-03 16:53:37.586000,0.03662332906061161
2611844290,2024-07-03 16:53:37.590000,0.02993957150704999
2611844290,2024-07-03 16:53:37.594000,0.023255813953488372
2611844290,2024-07-03 16:53:37.598000,0.023622047244094488
2611844290,2024-07-03 16:53:37.602000,0.03360190441311115
2611844290,2024-07-03 16:53:37.606000,0.05163889397546237
2611844290,2024-07-03 16:53:37.610000,0.07690899102728438
2611844290,2024-07-03 16:53:37.614000,0.10391869620948545
2611844290,2024-07-03 16:53:37.618000,0.12232191906244277
2611844290,2024-07-03 16:53:37.622000,0.12992125984251968
2611844290,2024-07-03 16:53:37.626000,0.13422450100714156
2611844290,2024-07-03 16:53:37.630000,0.14072514191540011
2611844290,2024-07-03 16:53:37.634000,0.14768357443691632
2611844290,2024-07-03 16:53:37.638000,0.15198681560153818
2611844290,2024-07-03 16:53:37.642000,0.15354330708661418
2611844290,2024-07-03 16:53:37.646000,0.15345174876396264
2611844290,2024-07-03 16:53:37.650000,0.15125434902032595
2611844290,2024-07-03 16:53:37.654000,0.1451199414026735
2611844290,2024-07-03 16:53:37.658000,0.1355978758469145
2611844290,2024-07-03 16:53:37.662000,0.1252517853872917
2611844290,2024-07-03 16:53:37.666000,0.11582127815418422
2611844290,2024-07-03 16:53:37.670000,0.10684856253433438
2611844290,2024-07-03 16:53:37.674000,0.09485442226698407
2611844290,2024-07-03 16:53:37.678000,0.07388756637978393
2611844290,2024-07-03 16:53:37.682000,0.04522981138985534
2611844290,2024-07-03 16:53:37.686000,0.02060062259659403
2611844290,2024-07-03 16:53:37.690000,0.009155832265152902
2611844290,2024-07-03 16:53:37.694000,0.007965574070683025
2611844290,2024-07-03 16:53:37.698000,0.00933894891045596
2611844290,2024-07-03 16:53:37.702000,0.00842336568394067
2611844290,2024-07-03 16:53:37.706000,0.004852591100531038
2611844290,2024-07-03 16:53:37.710000,0.0010986998718183483
2611844290,2024-07-03 16:53:37.714000,-0.0005493499359091741
2611844290,2024-07-03 16:53:37.718000,-0.0003662332906061161
2611844290,2024-07-03 16:53:37.722000,0.00027467496795458707
2611844290,2024-07-03 16:53:37.726000,-0.00018311664530305805
2611844290,2024-07-03 16:53:37.730000,-0.005035707745834096
2611844290,2024-07-03 16:53:37.734000,-0.016480498077275224
2611844290,2024-07-03 16:53:37.738000,-0.031312946346822926
2611844290,2024-07-03 16:53:37.742000,-0.041018128547885
2611844290,2024-07-03 16:53:37.746000,-0.04028566196667277
2611844290,2024-07-03 16:53:37.750000,-0.032411646218641274
2611844290,2024-07-03 16:53:37.754000,-0.02700970518220106
2611844290,2024-07-03 16:53:37.758000,-0.03012268815235305
2611844290,2024-07-03 16:53:37.762000,-0.036989562351217725
2611844290,2024-07-03 16:53:37.766000,-0.041018128547885
2611844290,2024-07-03 16:53:37.770000,-0.04184215345174876
2611844290,2024-07-03 16:53:37.774000,-0.04147592016114265
2611844290,2024-07-03 16:53:37.778000,-0.04028566196667277
2611844290,2024-07-03 16:53:37.782000,-0.03662332906061161
2611844290,2024-07-03 16:53:37.786000,-0.029481779893792345
2611844290,2024-07-03 16:53:37.790000,-0.019501922724775682
2611844290,2024-07-03 16:53:37.794000,-0.008514924006592199
2611844290,2024-07-03 16:53:37.798000,0.0003662332906061161
2611844290,2024-07-03 16:53:37.802000,0.0024720747115912836
2611844290,2024-07-03 16:53:37.806000,-0.004120124519318806
2611844290,2024-07-03 16:53:37.810000,-0.015564914850759934
2611844290,2024-07-03 16:53:37.814000,-0.02700970518220106
2611844290,2024-07-03 16:53:37.818000,-0.03552462918879326
2611844290,2024-07-03 16:53:37.822000,-0.0375389122871269
2611844290,2024-07-03 16:53:37.826000,-0.03286943783189892
2611844290,2024-07-03 16:53:37.830000,-0.02728438015015565
2611844290,2024-07-03 16:53:37.834000,-0.024537630470609778
2611844290,2024-07-03 16:53:37.838000,-0.02435451382530672
2611844290,2024-07-03 16:53:37.842000,-0.025819446987731184
2611844290,2024-07-03 16:53:37.846000,-0.0290239882805347
2611844290,2024-07-03 16:53:37.850000,-0.03296099615455045
2611844290,2024-07-03 16:53:37.854000,-0.035982420802050906
2611844290,2024-07-03 16:53:37.858000,-0.03735579564182384
2611844290,2024-07-03 16:53:37.862000,-0.03726423731917231
2611844290,2024-07-03 16:53:37.866000,-0.03579930415674785
2611844290,2024-07-03 16:53:37.870000,-0.032320087895989745
2611844290,2024-07-03 16:53:37.874000,-0.02700970518220106
2611844290,2024-07-03 16:53:37.878000,-0.022248672404321553
2611844290,2024-07-03 16:53:37.882000,-0.020875297564548617
2611844290,2024-07-03 16:53:37.886000,-0.022706464017579198
2611844290,2024-07-03 16:53:37.890000,-0.025819446987731184
2611844290,2024-07-03 16:53:37.894000,-0.028749313312580113
2611844290,2024-07-03 16:53:37.898000,-0.03012268815235305
2611844290,2024-07-03 16:53:37.902000,-0.03076359641091375
2611844290,2024-07-03 16:53:37.906000,-0.03286943783189892
2611844290,2024-07-03 16:53:37.910000,-0.03653177073796008
2611844290,2024-07-03 16:53:37.914000,-0.04147592016114265
2611844290,2024-07-03 16:53:37.918000,-0.0488921442959165
2611844290,2024-07-03 16:53:37.922000,-0.05603369346273576
2611844290,2024-07-03 16:53:37.926000,-0.05878044314228163
2611844290,2024-07-03 16:53:37.930000,-0.05731550997985717
2611844290,2024-07-03 16:53:37.934000,-0.05365317707379601
2611844290,2024-07-03 16:53:37.938000,-0.04715253616553745
2611844290,2024-07-03 16:53:37.942000,-0.03662332906061161
2611844290,2024-07-03 16:53:37.946000,-0.023622047244094488
2611844290,2024-07-03 16:53:37.950000,-0.011536348654092657
2611844290,2024-07-03 16:53:37.954000,-0.003937007874015748
2611844290,2024-07-03 16:53:37.958000,-0.0012818165171214063
2611844290,2024-07-03 16:53:37.962000,-0.0014649331624244644
2611844290,2024-07-03 16:53:37.966000,-0.004577916132576451
2611844290,2024-07-03 16:53:37.970000,-0.012360373557956418
2611844290,2024-07-03 16:53:37.974000,-0.023255813953488372
2611844290,2024-07-03 16:53:37.978000,-0.03213697125068669
2611844290,2024-07-03 16:53:37.982000,-0.03589086247939938
2611844290,2024-07-03 16:53:37.986000,-0.035982420802050906
2611844290,2024-07-03 16:53:37.990000,-0.035066837575535616
2611844290,2024-07-03 16:53:37.994000,-0.03497527925288409
2611844290,2024-07-03 16:53:37.998000,-0.03644021241530855
2611844290,2024-07-03 16:53:38.002000,-0.03872917048159678
2611844290,2024-07-03 16:53:38.006000,-0.03827137886833913
2611844290,2024-07-03 16:53:38.010000,-0.03167917963742904
2611844290,2024-07-03 16:53:38.014000,-0.01858633949826039
2611844290,2024-07-03 16:53:38.018000,-0.0024720747115912836
2611844290,2024-07-03 16:53:38.022000,0.012360373557956418
2611844290,2024-07-03 16:53:38.026000,0.02353048892144296
2611844290,2024-07-03 16:53:38.030000,0.03076359641091375
2611844290,2024-07-03 16:53:38.034000,0.03442592931697491
2611844290,2024-07-03 16:53:38.038000,0.03497527925288409
2611844290,2024-07-03 16:53:38.042000,0.03177073796008057
2611844290,2024-07-03 16:53:38.046000,0.022248672404321553
2611844290,2024-07-03 16:53:38.050000,0.00558505768174327
2611844290,2024-07-03 16:53:38.054000,-0.013825306720380882
2611844290,2024-07-03 16:53:38.058000,-0.02984801318439846
2611844290,2024-07-03 16:53:38.062000,-0.04092657022523347
2611844290,2024-07-03 16:53:38.066000,-0.04843435268265885
2611844290,2024-07-03 16:53:38.070000,-0.05163889397546237
2611844290,2024-07-03 16:53:38.074000,-0.049166819263871085
2611844290,2024-07-03 16:53:38.078000,-0.0438564365500824
2611844290,2024-07-03 16:53:38.082000,-0.04486357809924922
2611844290,2024-07-03 16:53:38.086000,-0.05347006042849295
2611844290,2024-07-03 16:53:38.090000,-0.055209668558872
2611844290,2024-07-03 16:53:38.094000,-0.034242812671671854
2611844290,2024-07-03 16:53:38.098000,0.014283098333638528
2611844290,2024-07-03 16:53:38.102000,0.08395898187145212
2611844290,2024-07-03 16:53:38.106000,0.15592382347555392
2611844290,2024-07-03 16:53:38.110000,0.20426661783556124
2611844290,2024-07-03 16:53:38.114000,0.2116828419703351
2611844290,2024-07-03 16:53:38.118000,0.1808276872367698
2611844290,2024-07-03 16:53:38.122000,0.12635048525911005
2611844290,2024-07-03 16:53:38.126000,0.05823109320637246
2611844290,2024-07-03 16:53:38.130000,-0.012909723493865592
2611844290,2024-07-03 16:53:38.134000,-0.07516938289690533
2611844290,2024-07-03 16:53:38.138000,-0.13010437648782275
2611844290,2024-07-03 16:53:38.142000,-0.17460172129646584
2611844290,2024-07-03 16:53:38.146000,-0.18906793627540744
2611844290,2024-07-03 16:53:38.150000,-0.17103094671305621
2611844290,2024-07-03 16:53:38.154000,-0.14072514191540011
2611844290,2024-07-03 16:53:38.158000,-0.11096868705365318
2611844290,2024-07-03 16:53:38.162000,-0.08167002380516389
2611844290,2024-07-03 16:53:38.166000,-0.05328694378318989
2611844290,2024-07-03 16:53:38.170000,-0.030580479765610694
2611844290,2024-07-03 16:53:38.174000,-0.017396081303790514
2611844290,2024-07-03 16:53:38.178000,-0.012726606848562534
2611844290,2024-07-03 16:53:38.182000,-0.012268815235304889
2611844290,2024-07-03 16:53:38.186000,-0.01117011536348654
2611844290,2024-07-03 16:53:38.190000,-0.007965574070683025
2611844290,2024-07-03 16:53:38.194000,-0.007141549166819264
2611844290,2024-07-03 16:53:38.198000,-0.014557773301593115
2611844290,2024-07-03 16:53:38.202000,-0.028383080021973997
2611844290,2024-07-03 16:53:38.206000,-0.03964475370811207
2611844290,2024-07-03 16:53:38.210000,-0.04303241164621864
2611844290,2024-07-03 16:53:38.214000,-0.04092657022523347
2611844290,2024-07-03 16:53:38.218000,-0.03763047060977843
2611844290,2024-07-03 16:53:38.222000,-0.03460904596227797
2611844290,2024-07-03 16:53:38.226000,-0.029390221571140816
2611844290,2024-07-03 16:53:38.230000,-0.019318806079472624
2611844290,2024-07-03 16:53:38.234000,-0.0062259659403039735
2611844290,2024-07-03 16:53:38.238000,0.004577916132576451
2611844290,2024-07-03 16:53:38.242000,0.01117011536348654
2611844290,2024-07-03 16:53:38.246000,0.015381798205456876
2611844290,2024-07-03 16:53:38.250000,0.018128547885002746
2611844290,2024-07-03 16:53:38.254000,0.016663614722578282
2611844290,2024-07-03 16:53:38.258000,0.007965574070683025
2611844290,2024-07-03 16:53:38.262000,-0.005401941036440212
2611844290,2024-07-03 16:53:38.266000,-0.01675517304522981
2611844290,2024-07-03 16:53:38.270000,-0.02234023072697308
2611844290,2024-07-03 16:53:38.274000,-0.024079838857352133
2611844290,2024-07-03 16:53:38.278000,-0.023713605566746017
2611844290,2024-07-03 16:53:38.282000,-0.020783739241897088
2611844290,2024-07-03 16:53:38.286000,-0.015381798205456876
2611844290,2024-07-03 16:53:38.290000,-0.009155832265152902
2611844290,2024-07-03 16:53:38.294000,-0.0021973997436366965
2611844290,2024-07-03 16:53:38.298000,0.00933894891045596
2611844290,2024-07-03 16:53:38.302000,0.030488921442959165
2611844290,2024-07-03 16:53:38.306000,0.061252517853872916
2611844290,2024-07-03 16:53:38.310000,0.0955868888481963
2611844290,2024-07-03 16:53:38.314000,0.12442776048342795
2611844290,2024-07-03 16:53:38.318000,0.140358908624794
2611844290,2024-07-03 16:53:38.322000,0.1409998168833547
2611844290,2024-07-03 16:53:38.326000,0.12982970151986817
2611844290,2024-07-03 16:53:38.330000,0.11435634499175976
2611844290,2024-07-03 16:53:38.334000,0.1028199963376671
2611844290,2024-07-03 16:53:38.338000,0.09860831349569676
2611844290,2024-07-03 16:53:38.342000,0.09723493865592382
2611844290,2024-07-03 16:53:38.346000,0.09274858084599891
2611844290,2024-07-03 16:53:38.350000,0.08368430690349753
2611844290,2024-07-03 16:53:38.354000,0.07370444973448087
2611844290,2024-07-03 16:53:38.358000,0.06711225050357078
2611844290,2024-07-03 16:53:38.362000,0.06482329243728255
2611844290,2024-07-03 16:53:38.366000,0.06509796740523714
2611844290,2024-07-03 16:53:38.370000,0.0637245925654642
2611844290,2024-07-03 16:53:38.374000,0.054751876945614356
2611844290,2024-07-03 16:53:38.378000,0.0347006042849295
2611844290,2024-07-03 16:53:38.382000,0.0062259659403039735
2611844290,2024-07-03 16:53:38.386000,-0.023622047244094488
2611844290,2024-07-03 16:53:38.390000,-0.046511627906976744
2611844290,2024-07-03 16:53:38.394000,-0.05722395165720564
2611844290,2024-07-03 16:53:38.398000,-0.058688884819630104
2611844290,2024-07-03 16:53:38.402000,-0.0574070683025087
2611844290,2024-07-03 16:53:38.406000,-0.05713239333455411
2611844290,2024-07-03 16:53:38.410000,-0.05786485991576634
2611844290,2024-07-03 16:53:38.414000,-0.05823109320637246
2611844290,2024-07-03 16:53:38.418000,-0.05786485991576634
2611844290,2024-07-03 16:53:38.422000,-0.057681743270463284
2611844290,2024-07-03 16:53:38.426000,-0.05896355978758469
2611844290,2024-07-03 16:53:38.430000,-0.062259659403039735
2611844290,2024-07-03 16:53:38.434000,-0.0650064090825856
2611844290,2024-07-03 16:53:38.438000,-0.0630836843069035
2611844290,2024-07-03 16:53:38.442000,-0.05612525178538729
2611844290,2024-07-03 16:53:38.446000,-0.05127266068485625
2611844290,2024-07-03 16:53:38.450000,-0.053836293719099065
2611844290,2024-07-03 16:53:38.454000,-0.05813953488372093
2611844290,2024-07-03 16:53:38.458000,-0.05630836843069035
2611844290,2024-07-03 16:53:38.462000,-0.049258377586522614
2611844290,2024-07-03 16:53:38.466000,-0.04312396996887017
2611844290,2024-07-03 16:53:38.470000,-0.04001098699871818
2611844290,2024-07-03 16:53:38.474000,-0.03726423731917231
2611844290,2024-07-03 16:53:38.478000,-0.033235671122505035
2611844290,2024-07-03 16:53:38.482000,-0.02993957150704999
2611844290,2024-07-03 16:53:38.486000,-0.031312946346822926
2611844290,2024-07-03 16:53:38.490000,-0.039736312030763596
2611844290,2024-07-03 16:53:38.494000,-0.052096685588720014
2611844290,2024-07-03 16:53:38.498000,-0.061252517853872916
2611844290,2024-07-03 16:53:38.502000,-0.06436550082402491
2611844290,2024-07-03 16:53:38.506000,-0.06409082585607032
2611844290,2024-07-03 16:53:38.510000,-0.06335835927485808
2611844290,2024-07-03 16:53:38.514000,-0.06280900933894891
2611844290,2024-07-03 16:53:38.518000,-0.06161875114447903
2611844290,2024-07-03 16:53:38.522000,-0.05905511811023622
2611844290,2024-07-03 16:53:38.526000,-0.05649148507599341
2611844290,2024-07-03 16:53:38.530000,-0.054843435268265885
2611844290,2024-07-03 16:53:38.534000,-0.051913568943416956
2611844290,2024-07-03 16:53:38.538000,-0.0432155282915217
2611844290,2024-07-03 16:53:38.542000,-0.02728438015015565
2611844290,2024-07-03 16:53:38.546000,-0.008972715619849844
2611844290,2024-07-03 16:53:38.550000,0.005310382713788683
2611844290,2024-07-03 16:53:38.554000,0.011719465299395715
2611844290,2024-07-03 16:53:38.558000,0.006500640908258561
2611844290,2024-07-03 16:53:38.562000,-0.010895440395531954
2611844290,2024-07-03 16:53:38.566000,-0.03341878776780809
2611844290,2024-07-03 16:53:38.570000,-0.04989928584508332
2611844290,2024-07-03 16:53:38.574000,-0.05594213514008423
2611844290,2024-07-03 16:53:38.578000,-0.05438564365500824
2611844290,2024-07-03 16:53:38.582000,-0.04715253616553745
2611844290,2024-07-03 16:53:38.586000,-0.03396813770371727
2611844290,2024-07-03 16:53:38.590000,-0.01858633949826039
2611844290,2024-07-03 16:53:38.594000,-0.008331807361289141
2611844290,2024-07-03 16:53:38.598000,-0.0058597326496978575
2611844290,2024-07-03 16:53:38.602000,-0.006866874198864677
2611844290,2024-07-03 16:53:38.606000,-0.005493499359091741
2611844290,2024-07-03 16:53:38.610000,0.0020142830983336385
2611844290,2024-07-03 16:53:38.614000,0.013642190075077824
2611844290,2024-07-03 16:53:38.618000,0.0233473722761399
2611844290,2024-07-03 16:53:38.622000,0.02700970518220106
2611844290,2024-07-03 16:53:38.626000,0.021882439113715436
2611844290,2024-07-03 16:53:38.630000,0.006500640908258561
2611844290,2024-07-03 16:53:38.634000,-0.013825306720380882
2611844290,2024-07-03 16:53:38.638000,-0.029298663248489287
2611844290,2024-07-03 16:53:38.642000,-0.03634865409265702
2611844290,2024-07-03 16:53:38.646000,-0.03827137886833913
2611844290,2024-07-03 16:53:38.650000,-0.037996703900384544
2611844290,2024-07-03 16:53:38.654000,-0.03671488738326314
2611844290,2024-07-03 16:53:38.658000,-0.035982420802050906
2611844290,2024-07-03 16:53:38.662000,-0.03717267899652078
2611844290,2024-07-03 16:53:38.666000,-0.03918696209485442
2611844290,2024-07-03 16:53:38.670000,-0.03955319538546054
2611844290,2024-07-03 16:53:38.674000,-0.03579930415674785
2611844290,2024-07-03 16:53:38.678000,-0.02819996337667094
2611844290,2024-07-03 16:53:38.682000,-0.020325947628639443
2611844290,2024-07-03 16:53:38.686000,-0.015198681560153818
2611844290,2024-07-03 16:53:38.690000,-0.011811023622047244
2611844290,2024-07-03 16:53:38.694000,-0.009247390587804431
2611844290,2024-07-03 16:53:38.698000,-0.00659219923091009
2611844290,2024-07-03 16:53:38.702000,-0.0026551913568943417
2611844290,2024-07-03 16:53:38.706000,0.0021058414209851675
2611844290,2024-07-03 16:53:38.710000,0.005310382713788683
2611844290,2024-07-03 16:53:38.714000,0.0060428492950009155
2611844290,2024-07-03 16:53:38.718000,0.005310382713788683
2611844290,2024-07-03 16:53:38.722000,0.00466947445522798
2611844290,2024-07-03 16:53:38.726000,0.004852591100531038
2611844290,2024-07-03 16:53:38.730000,0.005493499359091741
2611844290,2024-07-03 16:53:38.734000,0.006866874198864677
2611844290,2024-07-03 16:53:38.738000,0.009705182201062076
2611844290,2024-07-03 16:53:38.742000,0.012818165171214063
2611844290,2024-07-03 16:53:38.746000,0.012268815235304889
2611844290,2024-07-03 16:53:38.750000,0.004944149423182567
2611844290,2024-07-03 16:53:38.754000,-0.006958432521516206
2611844290,2024-07-03 16:53:38.758000,-0.01776231459439663
2611844290,2024-07-03 16:53:38.762000,-0.024171397180003662
2611844290,2024-07-03 16:53:38.766000,-0.027467496795458707
2611844290,2024-07-03 16:53:38.770000,-0.024812305438564365
2611844290,2024-07-03 16:53:38.774000,-0.009064273942501373
2611844290,2024-07-03 16:53:38.778000,0.013916865043032411
2611844290,2024-07-03 16:53:38.782000,0.02353048892144296
2611844290,2024-07-03 16:53:38.786000,0.009613623878410547
2611844290,2024-07-03 16:53:38.790000,-0.021058414209851675
2611844290,2024-07-03 16:53:38.794000,-0.052920710492583775
2611844290,2024-07-03 16:53:38.798000,-0.057681743270463284
2611844290,2024-07-03 16:53:38.802000,-0.008606482329243728
2611844290,2024-07-03 16:53:38.806000,0.0857901483244827
2611844290,2024-07-03 16:53:38.810000,0.18311664530305805
2611844290,2024-07-03 16:53:38.814000,0.24528474638344624
2611844290,2024-07-03 16:53:38.818000,0.25407434535799306
2611844290,2024-07-03 16:53:38.822000,0.20902765061344075
2611844290,2024-07-03 16:53:38.826000,0.1349569675883538
2611844290,2024-07-03 16:53:38.830000,0.06363303424281268
2611844290,2024-07-03 16:53:38.834000,0.00375389122871269
